Baseline 100%R,,alina_aged_oil_BHT_0_8,,alina_fresh_oil,,alina_fresh_oil_BHT_0_8,,alina_aged_oil_BHT_0_8_t_28_55,,alina_aged_oil_BHT_0_8_t_31_25,,alina_aged_oil_BHT_0_8_t_32_15,,alina_aged_oil_BHT_0_8_t_37_25,,alina_aged_oil_BHT_0_8_t_44_5,,alina_aged_oil_BHT_0_8_t_50,,alina_aged_oil_BHT_0_8_t_59,
Wavelength (nm),%R,Wavelength (nm),%R,Wavelength (nm),%R,Wavelength (nm),%R,Wavelength (nm),%R,Wavelength (nm),%R,Wavelength (nm),%R,Wavelength (nm),%R,Wavelength (nm),%R,Wavelength (nm),%R,Wavelength (nm),%R
400,41.99165344,400,6.448102951,400,7.214719772,400,6.478773117,400,6.382722378,400,6.278832436,400,6.203272343,400,6.2154603,400,6.27061367,400,6.29926157,400,6.360630512
399,41.88414383,399,6.516386509,399,6.823016167,399,6.643555164,399,6.581962109,399,6.220069408,399,6.321685791,399,6.233575344,399,6.169064045,399,6.346286774,399,6.055888176
398,41.8397789,398,6.403178692,398,6.733828545,398,6.562048912,398,6.381561756,398,6.499052048,398,6.248224258,398,6.198785305,398,6.341119766,398,6.192864895,398,6.214056015
397,41.80521393,397,6.559147835,397,6.766715527,397,6.822000504,397,6.548348904,397,6.465038776,397,6.181276321,397,6.378426552,397,6.439963818,397,6.146052837,397,6.045611382
396,41.75304413,396,6.723074436,396,6.857308865,396,6.765326977,396,6.328990459,396,6.271867275,396,6.538003922,396,6.122550964,396,6.296013355,396,6.198088646,396,5.966587543
395,41.7329216,395,6.684036732,395,6.68296051,395,6.685729504,395,6.547143459,395,6.462388515,395,6.355741501,395,6.424469471,395,6.337436199,395,6.442047119,395,5.977549553
394,41.64714813,394,6.667789936,394,7.006686211,394,6.53030777,394,6.399676323,394,6.556286812,394,6.43211174,394,6.362520218,394,6.239707947,394,6.373968124,394,6.124513149
393,41.55966187,393,6.613155365,393,6.919402599,393,6.450000286,393,6.277198315,393,6.389342785,393,6.281359673,393,6.435546398,393,6.487236977,393,6.234054089,393,6.053948402
392,41.54610443,392,6.769846439,392,6.799120426,392,6.477879524,392,6.356814384,392,6.45511055,392,6.761857986,392,6.212863445,392,6.274944305,392,6.348313332,392,6.427954674
391,41.47249222,391,6.955202579,391,6.865852356,391,6.657756329,391,6.462168694,391,6.51691103,391,6.277050018,391,5.987347126,391,6.140028477,391,6.39117527,391,6.453887939
390,41.41320419,390,6.639143944,390,6.971092701,390,6.835486889,390,6.676465988,390,6.378032207,390,6.085950851,390,6.31081295,390,6.445797443,390,6.206439972,390,6.516591549
389,41.37482071,389,7.040847778,389,6.878901482,389,6.629239082,389,6.448791027,389,6.646873951,389,6.521968365,389,6.584733963,389,6.530260086,389,6.375695705,389,6.216258049
388,41.33875656,388,7.138053894,388,7.127552986,388,6.735120773,388,6.812658787,388,6.868005753,388,6.566336632,388,6.490729809,388,6.277392864,388,6.193517685,388,6.292249203
387,41.37348175,387,6.925655842,387,6.990546703,387,6.848622322,387,6.593650818,387,6.966662407,387,6.093150139,387,6.539864063,387,6.209381104,387,6.289961338,387,6.33757019
386,41.26061249,386,6.96700716,386,7.015379429,386,6.860454559,386,6.986134529,386,6.709038258,386,6.360962391,386,6.234492779,386,6.303595543,386,6.387983799,386,6.344892025
385,41.21208191,385,6.709444523,385,7.263935566,385,6.395689964,385,6.849572182,385,6.451515675,385,6.384519577,385,6.495394707,385,6.3610816,385,6.474090576,385,6.660412312
384,41.22627258,384,6.973870277,384,6.971686363,384,6.593182564,384,6.759819984,384,6.405311108,384,6.562890053,384,6.460519791,384,6.312059402,384,6.436537743,384,6.099624157
383,41.08600998,383,6.735068321,383,7.189592838,383,6.885213375,383,6.499372482,383,6.430224419,383,6.522147179,383,6.480948448,383,6.397827625,383,6.578158379,383,6.204779148
382,41.02495193,382,6.985767365,382,7.191565037,382,6.798443317,382,6.679625034,382,6.850094318,382,6.425085068,382,6.531894207,382,6.538344383,382,6.402331352,382,6.148626804
381,40.95436859,381,7.12394619,381,7.248295307,381,6.927022934,381,6.830122471,381,6.681245804,381,6.493019104,381,6.438416958,381,6.624740601,381,6.463058472,381,6.171350479
380,40.86659622,380,6.970959663,380,7.331178188,380,6.991018295,380,6.756392956,380,6.833544254,380,6.5316782,380,6.593027592,380,6.436039448,380,6.484115124,380,6.228805542
379,40.844944,379,7.057519913,379,7.390541553,379,7.481485367,379,6.944313526,379,6.723464489,379,6.707832813,379,6.63993597,379,6.730878353,379,6.649330139,379,6.53172636
378,40.71928024,378,7.092803001,378,7.442237377,378,7.16302681,378,7.02327919,378,6.99222517,378,6.658480167,378,6.700766087,378,6.78905344,378,6.85794878,378,6.899824619
377,40.63899612,377,7.062749386,377,7.40594101,377,7.71787262,377,6.802417278,377,6.71577692,377,6.992420673,377,6.786662102,377,6.694646358,377,6.646457195,377,6.341104031
376,40.60177994,376,7.206267834,376,7.597206593,376,7.260350227,376,7.193873882,376,6.906921387,376,6.851269245,376,7.046200275,376,6.576321125,376,6.904927731,376,6.545087814
375,40.56996536,375,7.243091583,375,7.441727638,375,7.631977081,375,7.111472607,375,6.932540894,375,7.131015301,375,6.703069687,375,6.6513834,375,7.003630638,375,6.397402287
374,40.47055054,374,7.113174915,374,7.494298935,374,7.403670311,374,7.184142113,374,6.854404449,374,6.821288109,374,6.727938175,374,6.678474903,374,6.726144314,374,6.732449055
373,40.33843994,373,7.393115997,373,7.458408356,373,7.397998333,373,7.041390896,373,7.012691498,373,6.831202507,373,7.031021118,373,6.794913292,373,6.866384506,373,6.580405712
372,40.38431549,372,7.442279816,372,7.633881092,372,7.422894478,372,7.008612156,372,7.148876667,372,7.090433598,372,7.083446503,372,6.87206316,372,6.768312931,372,6.855997562
371,40.2834816,371,7.264758587,371,7.512281895,371,7.154238224,371,7.030682087,371,7.102614403,371,6.912483215,371,6.86647892,371,7.034556389,371,6.838206291,371,6.708232403
370,40.22164917,370,7.314980984,370,7.788919449,370,7.331568718,370,7.222658157,370,7.003492355,370,7.094498158,370,6.912332058,370,7.118970871,370,6.897005558,370,6.75844717
369,40.18061829,369,7.738804817,369,7.731209755,369,7.415010929,369,7.25015831,369,7.244232178,369,7.466322899,369,7.125736713,369,6.898128986,369,6.989174366,369,6.807002544
368,40.36990356,368,7.747411728,368,7.533946514,368,7.269047737,368,7.206855774,368,7.157366753,368,7.133305073,368,7.317201138,368,6.880669117,368,7.283899307,368,6.67500639
367,40.14835739,367,7.676651478,367,7.865030289,367,7.416784763,367,7.162145615,367,7.250125885,367,7.031484127,367,6.971745968,367,7.045195103,367,6.980624199,367,6.839052677
366,40.00881958,366,7.669240952,366,8.032691956,366,7.453773022,366,7.24929142,366,7.143473625,366,7.238632202,366,7.218412876,366,7.116566658,366,6.894817352,366,6.733286381
365,40.02601242,365,7.523501873,365,7.819228649,365,7.442023754,365,7.2653265,365,7.216499805,365,7.131668091,365,7.058680058,365,7.013820648,365,7.102318287,365,7.104586601
364,39.9759407,364,7.76341629,364,7.893715858,364,7.766290188,364,7.691840172,364,7.21987772,364,7.386941433,364,7.117794991,364,7.374498844,364,7.185333252,364,6.99576664
363,40.09683609,363,7.598896503,363,7.822667122,363,7.700112343,363,7.430428982,363,7.364443779,363,7.105722904,363,7.228981018,363,7.277183056,363,6.944611549,363,7.068636894
362,39.92626953,362,7.636538029,362,7.680195808,362,7.543274879,362,7.480475903,362,7.412295818,362,7.321026325,362,7.279711723,362,7.104133129,362,7.207645416,362,6.992011547
361,39.93946457,361,7.773219585,361,7.927304268,361,7.399661064,361,7.375702381,361,7.409643173,361,7.361154079,361,7.442138195,361,7.10317564,361,6.990668297,361,7.169543743
360,39.84444809,360,7.680160522,360,7.774051189,360,7.511403561,360,7.690096855,360,7.330215931,360,7.404201508,360,7.349265575,360,7.090027809,360,7.169980049,360,7.105954647
359,39.89283752,359,7.739601135,359,7.863512516,359,7.434479237,359,7.568258286,359,7.31137991,359,7.27281189,359,7.26153183,359,7.254599094,359,6.936203003,359,6.9008255
358,40.05841446,358,7.516451836,358,7.75480938,358,7.494468212,358,7.270667076,358,7.22244072,358,7.111076355,358,7.083156109,358,7.027673721,358,6.875500202,358,6.800732136
357,40.02058029,357,7.654167175,357,7.721712589,357,7.448907852,357,7.279901981,357,7.360034466,357,7.150826454,357,7.158947945,357,7.139733315,357,6.906143665,357,6.852837086
356,39.99059296,356,7.673679829,356,7.735162735,356,7.445067406,356,7.507810593,356,7.228533268,356,7.328061581,356,7.238138676,356,7.012723446,356,6.869748116,356,6.903814316
355,39.89211655,355,7.698908329,355,7.680299282,355,7.384799957,355,7.363657475,355,7.223352909,355,7.422029018,355,7.297021866,355,7.187438965,355,6.973669529,355,6.859848499
354,39.94788361,354,7.660639286,354,7.674259663,354,7.331355095,354,7.241091728,354,7.178981781,354,7.20655632,354,7.053702354,354,6.988131046,354,6.930284977,354,6.815880775
353,39.91454697,353,7.517857075,353,7.617381096,353,7.415763378,353,7.335780621,353,7.175363064,353,7.139302731,353,7.163598537,353,7.005731583,353,6.95356226,353,6.797995567
352,39.89640045,352,7.699602127,352,7.563957691,352,7.457676411,352,7.247960567,352,7.226954937,352,7.162826538,352,7.021938324,352,7.100378513,352,6.846452713,352,6.839934826
351,39.85913467,351,7.532919407,351,7.533144951,351,7.171408176,351,7.34623003,351,7.182551861,351,7.395067692,351,7.152492523,351,7.011572838,351,6.827394485,351,6.910463333
350,39.71137619,350,7.734565258,350,7.507648468,350,7.115872383,350,7.239631653,350,7.28738451,350,7.109802246,350,7.159028053,350,7.117490292,350,6.826890945,350,6.85449028
349,39.86511993,349,7.482441425,349,7.402727127,349,7.015730381,349,7.226209164,349,7.121456623,349,7.043736458,349,7.145001888,349,7.145759583,349,6.801813126,349,6.80946207
348,39.72767258,348,7.748635769,348,7.356296539,348,6.986638069,348,7.235745907,348,7.123261452,348,7.016594887,348,7.228288174,348,6.964485168,348,6.764458656,348,6.80416584
347,39.58573532,347,7.597307682,347,7.310105801,347,7.005944729,347,7.202889919,347,7.193163872,347,7.095097065,347,6.99011898,347,6.918264389,347,6.913586617,347,6.896991253
346,39.54733276,346,7.528053284,346,7.254698277,346,7.048798561,346,7.169656277,346,7.215909004,346,7.008022785,346,7.004007816,346,6.947802067,346,6.808867931,346,6.903551579
345,39.53859329,345,7.481124878,345,7.22350502,345,6.899626732,345,7.129730225,345,7.090891838,345,7.021985054,345,7.074385166,345,6.915680408,345,6.770968437,345,6.821861267
344,39.61948013,344,7.569011211,344,7.156173706,344,6.817419052,344,7.125566959,344,7.091595173,344,6.94621706,344,6.97387886,344,6.88597393,344,6.809116364,344,6.737225533
343,39.56838608,343,7.411979198,343,7.086699486,343,6.80056715,343,7.091151714,343,7.038319111,343,7.044888973,343,7.218033791,343,6.846602917,343,6.743425846,343,6.692834854
342,39.44810486,342,7.471940041,342,7.110316277,342,6.809832096,342,7.080563068,342,7.113785267,342,6.945718288,342,6.937055111,342,6.866238117,342,6.887944221,342,6.741728783
341,39.474617,341,7.368928909,341,7.100390434,341,6.812735558,341,7.089363098,341,7.035031796,341,7.008503437,341,7.099713326,341,6.859912872,341,6.757655621,341,6.835922718
340,39.414711,340,7.409577847,340,7.078742027,340,6.766283512,340,7.075697899,340,7.057470798,340,7.026247501,340,6.921766758,340,6.873025894,340,6.777004242,340,6.661165714
339,39.44122696,339,7.513132095,339,7.060633659,339,6.731069088,339,7.030566692,339,7.017505169,339,6.866628647,339,6.986404419,339,6.955267429,339,6.852628231,339,6.786090851
338,39.40625381,338,7.329010963,338,7.062289238,338,6.808491707,338,7.051870823,338,7.131894588,338,6.916957378,338,6.912458897,338,6.954587936,338,6.764625549,338,6.67814827
337,39.3808403,337,7.396681786,337,7.060241699,337,6.689868927,337,7.127407074,337,6.996787548,337,6.917606831,337,6.928453445,337,6.889864922,337,6.865170002,337,6.789820671
336,39.36675644,336,7.562833309,336,7.013923645,336,6.765179157,336,7.004823685,336,7.025872231,336,7.059399605,336,6.860339642,336,6.916619778,336,6.76465559,336,6.683716774
335,39.32089996,335,7.378414154,335,7.035039425,335,6.681657791,335,7.055000782,335,6.954612732,335,6.870739937,335,7.024588585,335,6.862606049,335,6.771083832,335,6.67464447
334,39.28063965,334,7.412168503,334,7.213138103,334,6.795708656,334,6.985253811,334,7.116578579,334,6.936863899,334,6.939468384,334,6.826762199,334,6.862360954,334,6.667656422
333,39.26795197,333,7.408552647,333,7.061186314,333,6.703543663,333,7.014537811,333,7.000212193,333,7.035839558,333,7.037583828,333,6.954007626,333,6.776341915,333,6.713982105
332,39.12672043,332,7.646747112,332,7.121618748,332,6.670590401,332,7.086311817,332,7.051832199,332,6.953599453,332,7.00643158,332,6.860226631,332,6.820240498,332,6.729737759
331,39.15049362,331,7.483067989,331,7.048400402,331,6.747110367,331,7.04248333,331,7.065564156,331,6.993897438,331,7.033512592,331,6.947276115,331,6.783689022,331,6.813810825
330,39.05877304,330,7.577868462,330,7.116895199,330,6.866771698,330,7.140817642,330,7.041171074,330,6.978609562,330,6.994735241,330,6.951172829,330,6.92371273,330,6.832901955
329,39.03063965,329,7.542660236,329,7.134790897,329,6.862760544,329,7.126515388,329,7.235753536,329,6.980526447,329,7.136806965,329,6.930989265,329,6.947938919,329,6.784889221
328,39.0357132,328,7.69392395,328,7.198890209,328,6.795696735,328,7.125749588,328,7.156523228,328,7.00524807,328,7.056202888,328,7.048844337,328,6.911541462,328,6.80755806
327,38.92606735,327,7.826492786,327,7.155007362,327,6.917837143,327,7.175424099,327,7.117275238,327,7.067272186,327,7.084320545,327,6.94239521,327,6.998495579,327,6.915389538
326,38.98369598,326,7.610323429,326,7.21387291,326,6.932152748,326,7.24202013,326,7.261954308,326,7.072010517,326,7.201100826,326,7.022353172,326,6.913431168,326,7.003529549
325,38.91288757,325,7.643186092,325,7.20858717,325,6.839414597,325,7.393739223,325,7.197711468,325,7.127803802,325,7.106128216,325,7.029716492,325,7.022797108,325,6.9510355
324,38.80752563,324,7.890371799,324,7.358222485,324,6.91741848,324,7.273154736,324,7.465769291,324,7.124751091,324,7.187753677,324,7.153312683,324,7.089272022,324,6.969462872
323,38.8015213,323,7.85703373,323,7.28110981,323,6.90516758,323,7.402680874,323,7.284925938,323,7.14648056,323,7.189694881,323,7.242992401,323,6.98466301,323,7.004600048
322,38.77351761,322,7.742239475,322,7.285635948,322,6.921432018,322,7.326364517,322,7.287095547,322,7.190470219,322,7.578232765,322,7.12963438,322,7.265061378,322,6.93277216
321,38.74252319,321,7.852687836,321,7.318117619,321,6.965929031,321,7.543252945,321,7.31916523,321,7.21031189,321,7.216621399,321,7.188401222,321,7.119287014,321,7.02375555
320,38.59815216,320,7.777783394,320,7.337265491,320,7.078344345,320,7.343199253,320,7.34242487,320,7.330544472,320,7.295435905,320,7.123085022,320,7.276916504,320,6.977971554
319,38.65952682,319,8.142163277,319,7.470799446,319,6.989560127,319,7.39670372,319,7.323696613,319,7.208202839,319,7.21924448,319,7.221530437,319,7.043427467,319,6.967028141
318,38.56498337,318,8.250561714,318,7.377331734,318,7.062452316,318,7.363127708,318,7.318994522,318,7.262624741,318,7.235650063,318,7.111615181,318,7.282422543,318,7.111480713
317,38.48638535,317,7.84130621,317,7.399571896,317,6.995418072,317,7.427750587,317,7.387237072,317,7.254753113,317,7.389255047,317,7.176760674,317,7.143416405,317,7.120606899
316,38.42513657,316,7.853047371,316,7.482176781,316,7.053493023,316,7.385913372,316,7.425855637,316,7.269702911,316,7.45121479,316,7.270625114,316,7.248235703,316,7.063437939
315,38.39772415,315,7.937759876,315,7.403265476,315,7.212622643,315,7.489317894,315,7.40523243,315,7.286128521,315,7.384634972,315,7.319643974,315,7.410502434,315,7.149789333
314,38.32911682,314,7.879752159,314,7.534188747,314,7.207364082,314,7.441718102,314,7.371746063,314,7.453153133,314,7.339744091,314,7.317710876,314,7.323293209,314,7.110766411
313,38.38729477,313,8.031662941,313,7.436240673,313,7.160402775,313,7.432337284,313,7.4985466,313,7.335514545,313,7.35796833,313,7.222064018,313,7.216228485,313,7.059936047
312,38.24006271,312,8.000309944,312,7.56240797,312,7.096810818,312,7.624148369,312,7.484967232,312,7.378167629,312,7.359810829,312,7.398900986,312,7.241533756,312,7.237802982
311,38.15610886,311,8.043784142,311,7.5143466,311,7.306717396,311,7.543514729,311,7.538842201,311,7.442272663,311,7.449639797,311,7.374843121,311,7.606374264,311,7.294877052
310,38.09290314,310,8.108515739,310,7.545120239,310,7.200984001,310,7.65850544,310,7.63385582,310,7.53095293,310,7.574252605,310,7.354627609,310,7.415027142,310,7.286493301
309,38.11103058,309,8.109817505,309,7.670567036,309,7.303505898,309,7.639223099,309,7.556191921,309,7.496098995,309,7.695885181,309,7.401360512,309,7.335752487,309,7.316905022
308,37.96302414,308,8.185034752,308,7.747159958,308,7.425058842,308,7.75244379,308,7.71954298,308,7.654158115,308,7.56362772,308,7.457260609,308,7.540000916,308,7.33934927
307,37.85836411,307,8.311031342,307,7.683672905,307,7.285647869,307,7.696702957,307,7.633432865,307,7.853004932,307,7.587583542,307,7.465771675,307,7.434859276,307,7.424929142
306,37.8215332,306,8.618485451,306,7.695719719,306,7.309527874,306,7.812945366,306,7.871816158,306,7.678348541,306,7.678994656,306,7.476400375,306,7.415617466,306,7.509809017
305,37.76705551,305,8.253712654,305,7.723084927,305,7.325427055,305,7.73153019,305,7.874731541,305,7.655177116,305,7.61149168,305,7.814970016,305,7.549336433,305,7.451941013
304,37.71240997,304,8.269005775,304,7.841629028,304,7.31489563,304,7.846446514,304,7.793647766,304,7.689552784,304,7.602520466,304,7.508706093,304,7.460852146,304,7.547286987
303,37.6283989,303,8.268492699,303,7.967378139,303,7.367666245,303,7.740931988,303,7.715985775,303,7.722993374,303,7.632471561,303,7.547092438,303,7.588542938,303,7.372278214
302,37.5565033,302,8.495241165,302,7.92832756,302,7.629856586,302,7.72896862,302,7.854935646,302,7.607652187,302,7.746005058,302,7.63234663,302,7.56917572,302,7.390881538
301,37.50128937,301,8.303329468,301,7.76341486,301,7.380838871,301,7.757083893,301,7.778065681,301,7.73416996,301,7.919356346,301,7.614391327,301,7.616648674,301,7.494910717
300,37.41178131,300,8.368694305,300,7.884596348,300,7.478335381,300,8.048334122,300,7.86141777,300,7.622077465,300,7.854262829,300,7.520270348,300,7.492127895,300,7.392610073
299,37.27945709,299,8.421472549,299,7.821660995,299,7.838212013,299,7.778077602,299,7.833128929,299,7.633391857,299,7.757808208,299,7.771903992,299,7.628756523,299,7.479636192
298,37.20186996,298,8.44230175,298,7.83785677,298,7.551218033,298,8.028161049,298,7.727713108,298,7.661164761,298,8.071626663,298,7.770421982,298,7.546345234,298,7.57462883
297,37.19118118,297,8.499749184,297,7.963956356,297,7.871339321,297,7.792686462,297,7.723484993,297,7.621803284,297,7.676102161,297,7.674500465,297,7.522733688,297,7.434520721
296,37.07580185,296,8.475312233,296,8.096514702,296,7.467505455,296,7.803380489,296,7.73942709,296,7.781431198,296,7.905252457,296,7.70445919,296,7.56528616,296,7.481382847
295,36.96856689,295,8.395411491,295,7.997419834,295,7.586791992,295,7.790465832,295,7.762415886,295,7.73576355,295,7.962237835,295,7.844360352,295,7.681375027,295,7.447957993
294,36.84119415,294,8.486934662,294,8.18266201,294,7.475752354,294,7.801638603,294,7.87571907,294,7.661412716,294,7.980006218,294,7.743202209,294,7.809729099,294,7.462653637
293,36.88014603,293,8.383554459,293,8.019289017,293,7.716678143,293,7.868947029,293,7.86517477,293,7.84700489,293,7.859378338,293,7.732177734,293,7.814029694,293,7.583077908
292,36.68592453,292,8.410522461,292,7.95365715,292,7.739760876,292,7.894802094,292,8.092087746,292,7.715816021,292,7.87812233,292,7.75454998,292,7.718064785,292,7.487508774
291,36.58952713,291,8.626792908,291,8.140392303,291,7.712409019,291,7.834724426,291,7.90103817,291,7.816799641,291,7.882456303,291,7.852602959,291,7.840044022,291,7.499947548
290,36.6220932,290,8.550061226,290,8.027600288,290,7.591570377,290,7.832864761,290,8.050739288,290,7.693126678,290,7.898966789,290,7.74231863,290,7.639844894,290,7.923231125
289,36.40591049,289,8.732164383,289,8.041666031,289,7.645013332,289,7.963027,289,7.933864117,289,7.771930695,289,7.889903545,289,7.890044212,289,7.802647591,289,7.751272678
288,36.33431625,288,8.763318062,288,8.025899887,288,7.55327034,288,8.074643135,288,7.992246151,288,7.952874184,288,8.082697868,288,7.815229893,288,7.818778038,288,7.668075562
287,36.24144363,287,8.554098129,287,7.975700378,287,7.54583168,287,7.907141685,287,8.052510262,287,8.166383743,287,7.832156181,287,8.049782753,287,7.840097904,287,7.687446594
286,36.17128372,286,8.80949688,286,8.077148438,286,7.573687077,286,8.029702187,286,8.116839409,286,8.062898636,286,7.910342693,286,7.721535206,286,8.109082222,286,7.627440929
285,36.03299713,285,8.731397629,285,8.16912365,285,7.793591022,285,7.985574722,285,8.053132057,285,7.999270439,285,8.075374603,285,7.895244598,285,7.832449913,285,7.787705421
284,35.91932678,284,8.668117523,284,8.097867966,284,7.744598389,284,8.028143883,284,8.182312965,284,8.014030457,284,8.183626175,284,7.953141689,284,8.008050919,284,7.833877087
283,35.91939926,283,8.687141418,283,8.219797134,283,7.983157635,283,8.14060688,283,8.431487083,283,7.912017345,283,7.987179756,283,7.825122833,283,7.969742298,283,7.815188885
282,35.80376816,282,8.780420303,282,8.147089958,282,7.702937126,282,8.092897415,282,8.057079315,282,7.979677677,282,8.066486359,282,7.866425037,282,8.012161255,282,7.866056919
281,35.78351593,281,8.805973053,281,8.183763504,281,7.841070652,281,8.194537163,281,8.167980194,281,8.120207787,281,8.095691681,281,7.924060345,281,7.908989429,281,8.275875092
280,35.72104645,280,8.830695152,280,8.19922924,280,7.85791111,280,8.150569916,280,8.30555439,280,8.31758976,280,8.093929291,280,7.966860294,280,8.484380722,280,7.996903896
279,35.72112274,279,8.858644485,279,8.488836288,279,7.882781982,279,8.231056213,279,8.236250877,279,8.127037048,279,8.130102158,279,8.136612892,279,8.178618431,279,7.819752216
278,35.67402649,278,8.999700546,278,8.320437431,278,7.891727924,278,8.367747307,278,8.15080452,278,8.093111038,278,8.358320236,278,7.971033573,278,8.191189766,278,7.975150108
277,35.61822891,277,8.941987991,277,8.570618629,277,8.063100815,277,8.213058472,277,8.289448738,277,8.09341526,277,8.179796219,277,8.108548164,277,8.025958061,277,8.154385567
276,35.53184509,276,8.974946022,276,8.343372345,276,7.97363615,276,8.245965958,276,8.440343857,276,8.486190796,276,8.521057129,276,8.066615105,276,8.219348907,276,8.01531601
275,35.50592041,275,9.291006088,275,8.457427025,275,7.998981953,275,8.277691841,275,8.354488373,275,8.155570984,275,8.266516685,275,8.46923542,275,8.226771355,275,8.300905228
274,35.53001404,274,9.017435074,274,8.386363983,274,7.86339283,274,8.53016758,274,8.233812332,274,8.298085213,274,8.3852005,274,8.542693138,274,8.118220329,274,8.017191887
273,35.49100876,273,9.214372635,273,8.643933296,273,8.173127174,273,8.674851418,273,8.292765617,273,8.207230568,273,8.631753922,273,8.319900513,273,8.162745476,273,8.243412018
272,35.40882111,272,9.209736824,272,8.401841164,272,7.95526123,272,8.391309738,272,8.410527229,272,8.412344933,272,8.35662365,272,8.506965637,272,8.383353233,272,8.293867111
271,35.41294098,271,9.148807526,271,8.699673653,271,8.201081276,271,8.753357887,271,8.353919983,271,8.363594055,271,8.453715324,271,8.490125656,271,8.343239784,271,8.17576313
270,35.33172989,270,9.320523262,270,8.601834297,270,8.003731728,270,8.53592205,270,8.576936722,270,8.417240143,270,8.619081497,270,8.252392769,270,8.334158897,270,8.142221451
269,35.41204071,269,9.222297668,269,8.579017639,269,7.981445789,269,8.544033051,269,8.39468956,269,8.311585426,269,8.718271255,269,8.449873924,269,8.332763672,269,8.123291016
268,35.32816696,268,9.431867599,268,8.737054825,268,8.357990265,268,8.678652763,268,8.537751198,268,8.370015144,268,8.423459053,268,8.396190643,268,8.486215591,268,8.147321701
267,35.28930664,267,9.427600861,267,8.575437546,267,8.273498535,267,8.732841492,267,8.565584183,267,8.530664444,267,8.661393166,267,8.421553612,267,8.696343422,267,8.302016258
266,35.25693893,266,9.579174995,266,8.582086563,266,8.160888672,266,8.503255844,266,8.894503593,266,8.664762497,266,8.608596802,266,8.336392403,266,8.364441872,266,8.454474449
265,35.2012291,265,9.595849991,265,8.668375969,265,8.245762825,265,8.702056885,265,8.786781311,265,8.578179359,265,8.641838074,265,8.382101059,265,8.516900063,265,8.264809608
264,35.12983322,264,9.630760193,264,8.788218498,264,8.187039375,264,8.925553322,264,8.950336456,264,8.502117157,264,8.569994926,264,8.394672394,264,8.678693771,264,8.515268326
263,35.12733841,263,9.571659088,263,8.739812851,263,8.292878151,263,8.848417282,263,8.597699165,263,8.500798225,263,8.688018799,263,8.503080368,263,8.4731884,263,8.300109863
262,35.06045914,262,9.496524811,262,8.772784233,262,8.192002296,262,8.654251099,262,8.743947029,262,8.866811752,262,8.753243446,262,8.677142143,262,8.791327477,262,8.4484272
261,34.95965576,261,9.758392334,261,8.934812546,261,8.533425331,261,9.13202858,261,8.925169945,261,8.595932007,261,8.624529839,261,8.596748352,261,8.709458351,261,8.409464836
260,34.91916275,260,9.628624916,260,8.981255531,260,8.398096085,260,8.804532051,260,8.704769135,260,9.119945526,260,9.011538506,260,8.630998611,260,8.766615868,260,8.559379578
259,34.85345459,259,9.723536491,259,8.792023659,259,8.412297249,259,8.999172211,259,8.846217155,259,8.683882713,259,8.949264526,259,8.573989868,259,8.699584961,259,8.685518265
258,34.77197266,258,9.685475349,258,8.839735031,258,8.344011307,258,8.838683128,258,8.778123856,258,8.780061722,258,8.776986122,258,9.022094727,258,8.666388512,258,8.622994423
257,34.68010712,257,9.979406357,257,9.130259514,257,8.59069252,257,8.86691761,257,9.102172852,257,8.747483253,257,8.814949036,257,8.857491493,257,8.89874649,257,8.647639275
256,34.5673027,256,9.840250969,256,8.968437195,256,8.789253235,256,9.032417297,256,8.89921093,256,8.897736549,256,8.967364311,256,8.793903351,256,8.948091507,256,8.744338036
255,34.48019409,255,9.909914017,255,8.996150017,255,8.739192963,255,9.073516846,255,9.045811653,255,8.834160805,255,9.073554993,255,8.821670532,255,8.933166504,255,8.950200081
254,34.42974472,254,9.896677971,254,9.246722221,254,8.756668091,254,9.076741219,254,8.950043678,254,9.086827278,254,9.049298286,254,8.765769958,254,8.95600605,254,8.871050835
253,34.24118042,253,10.18568707,253,9.183534622,253,8.596364021,253,9.168843269,253,9.246646881,253,9.155100822,253,9.126893044,253,8.928779602,253,8.850039482,253,8.82310009
252,34.12720871,252,10.24655151,252,9.2703619,252,8.884620667,252,9.403090477,252,9.238320351,252,9.068230629,252,9.386211395,252,8.963662148,252,9.03926754,252,9.078826904
251,33.97981262,251,10.43831348,251,9.404912949,251,8.86714077,251,9.180693626,251,9.119003296,251,9.183696747,251,9.436354637,251,8.938793182,251,9.101913452,251,9.055597305
250,33.82179642,250,10.43791103,250,9.615978241,250,8.97321701,250,9.327364922,250,9.183111191,250,9.200155258,250,9.284532547,250,9.19678688,250,9.186781883,250,9.146947861
249,33.65056992,249,10.28864956,249,9.387341499,249,8.823719025,249,9.3244133,249,9.492610931,249,9.32154274,249,9.525243759,249,9.28086853,249,9.332457542,249,9.079073906
248,33.44847107,248,10.38618469,248,9.562060356,248,8.996440887,248,9.345970154,248,9.338400841,248,9.636869431,248,9.542696953,248,9.415762901,248,9.62938118,248,9.153803825
247,33.30344009,247,10.75217915,247,9.494568825,247,9.068351746,247,9.815498352,247,9.442956924,247,9.575157166,247,9.363156319,247,9.370797157,247,9.460965157,247,9.084178925
246,33.17313385,246,10.85210323,246,9.676926613,246,9.133699417,246,9.610655785,246,9.803370476,246,9.760622978,246,9.610192299,246,9.483795166,246,9.551029205,246,9.402121544
245,32.96520996,245,10.75630665,245,9.73951149,245,9.226736069,245,9.653853416,245,9.532770157,245,9.607923508,245,9.770214081,245,9.585899353,245,9.381220818,245,9.379926682
244,32.73841095,244,10.74161148,244,9.965871811,244,9.418700218,244,10.09284973,244,9.599048615,244,9.876073837,244,9.862970352,244,9.629199028,244,9.547783852,244,9.693994522
243,32.56080627,243,10.93929577,243,9.937124252,243,9.368103981,243,10.01490021,243,9.807619095,243,9.748815536,243,9.675421715,243,9.718895912,243,9.546070099,243,9.333172798
242,32.39889526,242,11.32042885,242,9.860357285,242,9.32586956,242,9.943063736,242,9.766219139,242,9.652207375,242,9.824712753,242,9.659730911,242,9.593840599,242,9.557583809
241,32.18277359,241,11.17680454,241,10.3486557,241,9.530375481,241,10.16389561,241,9.935583115,241,9.86219883,241,9.797278404,241,9.728019714,241,9.784916878,241,9.925865173
240,31.97189522,240,11.16544342,240,10.32351398,240,9.493201256,240,9.935173035,240,10.05033398,240,9.939034462,240,10.28040028,240,9.959667206,240,10.2712698,240,9.588484764
239,31.66438866,239,11.32408905,239,10.28285599,239,9.586843491,239,10.04229736,239,10.05661774,239,10.05445385,239,10.12498188,239,9.919523239,239,10.00314331,239,10.12605762
238,31.49501038,238,11.56355572,238,10.34837723,238,9.74115181,238,10.40356064,238,10.5054369,238,9.99754715,238,10.0763979,238,10.13926411,238,9.942721367,238,10.09800529
237,31.28156662,237,11.54441261,237,10.41896248,237,9.740925789,237,10.68026638,237,10.26639748,237,10.15214729,237,10.17230511,237,10.12161446,237,10.10822296,237,10.01771736
236,30.96780205,236,11.93502522,236,10.73262215,236,10.00178146,236,10.34137249,236,10.46875381,236,10.49442768,236,10.43098068,236,10.20376968,236,10.16077423,236,10.17055321
235,30.74436569,235,11.98978615,235,10.5262413,235,10.1226387,235,10.7489624,235,10.40954494,235,10.42852879,235,10.38259983,235,10.35468674,235,10.39119339,235,10.10369778
234,30.39535332,234,11.98699951,234,10.80211735,234,10.10154819,234,10.57630157,234,10.86608315,234,10.90995121,234,11.06516075,234,10.48056412,234,10.36565018,234,10.3804493
233,30.15438843,233,12.17177391,233,11.07814503,233,10.37035942,233,10.84192753,233,10.77047634,233,10.70357323,233,10.62966633,233,10.57943249,233,10.61539459,233,10.30612373
232,29.89788055,232,12.7953558,232,10.89454842,232,10.73364735,232,10.94594479,232,10.93239594,232,10.83283901,232,10.72842026,232,10.54810524,232,10.76538944,232,10.40866375
231,29.5425415,231,12.47909164,231,11.2179203,231,10.75096989,231,11.31055927,231,10.97329521,231,10.99106026,231,10.99098873,231,10.94288063,231,10.77655697,231,10.74624062
230,29.26461983,230,12.82176208,230,11.52207851,230,10.71893978,230,11.07710266,230,11.16273022,230,10.91400719,230,11.00100708,230,11.32815456,230,10.8254509,230,10.77086449
229,28.97371292,229,12.83942032,229,11.31855774,229,10.73680782,229,11.22566414,229,11.42708302,229,11.45339584,229,11.28288364,229,11.41928005,229,11.40782738,229,11.32575417
228,28.71106529,228,13.14757729,228,11.42042542,228,11.02210999,228,11.50688553,228,11.59115887,228,11.37958145,228,11.58229351,228,11.42773247,228,11.41571522,228,10.92756557
227,28.37831688,227,13.5388689,227,11.77972126,227,11.02223969,227,11.86012745,227,11.91400337,227,11.33226585,227,11.60853291,227,11.41507435,227,11.41457272,227,11.4634037
226,28.00979233,226,13.38012981,226,12.36400795,226,11.66961384,226,11.87070847,226,11.8789463,226,11.88107014,226,11.49037933,226,11.92744732,226,11.43599987,226,11.4405365
225,27.65163231,225,13.87587166,225,12.01727676,225,11.6516304,225,11.87936592,225,11.89925194,225,11.91511822,225,11.68439388,225,11.67294407,225,11.59100914,225,11.60485172
224,27.33148575,224,14.02684116,224,12.114748,224,11.85826683,224,12.24783707,224,12.2575531,224,11.78059196,224,12.0585041,224,12.10343361,224,11.82277966,224,11.5822773
223,26.99829102,223,14.33607006,223,12.40321922,223,12.16364861,223,12.33674908,223,12.67283249,223,12.34978771,223,12.2644949,223,12.44102383,223,11.89357281,223,11.72616673
222,26.64941025,222,14.2415657,222,12.65535641,222,11.93130875,222,12.85587215,222,12.56408405,222,12.12543869,222,12.11959076,222,12.66385651,222,12.2136879,222,12.07857704
221,26.29755783,221,14.38528919,221,12.79338741,221,11.9185667,221,12.47142315,221,12.7414999,221,12.70803547,221,13.17497063,221,12.37158298,221,12.34053135,221,12.23358154
220,25.93889618,220,14.88016701,220,12.75662804,220,12.46797848,220,12.68624115,220,12.90400505,220,12.66998386,220,12.87674046,220,12.24521446,220,12.7867384,220,12.32081032
219,25.47868538,219,15.71462727,219,13.64950275,219,12.20628643,219,13.10689449,219,13.17230034,219,12.88940144,219,12.67294407,219,12.49974251,219,12.76474285,219,12.62253857
218,25.16988182,218,15.30365944,218,12.98682404,218,12.61134148,218,13.5058403,218,13.55987072,218,13.06571102,218,13.25719357,218,12.53998089,218,12.71025372,218,13.01965523
217,24.82518959,217,15.30035877,217,14.07274914,217,12.66247749,217,13.76042843,217,13.47418118,217,13.24538994,217,13.2096529,217,12.98619461,217,13.26212883,217,12.62230015
216,24.40723228,216,15.82175922,216,13.91346741,216,12.69038963,216,14.0143795,216,14.25054646,216,13.72544193,216,13.09476471,216,13.15719509,216,13.04331112,216,13.41178989
215,24.13197708,215,15.90990829,215,13.82007027,215,12.72341633,215,13.70937252,215,14.05710697,215,13.92020893,215,13.86994171,215,14.25472069,215,13.05206013,215,13.55900192
214,23.80082512,214,16.13968277,214,13.83737946,214,13.18238068,214,13.9964056,214,13.93802738,214,14.02490425,214,13.52017498,214,13.51398087,214,13.7968359,214,13.49069023
213,23.35375786,213,16.56044197,213,13.824296,213,13.39534092,213,13.92110157,213,13.96565247,213,13.60716248,213,13.70919228,213,13.73104763,213,13.41048908,213,13.84774876
212,22.90043259,212,16.88496017,212,14.4413929,212,13.72596931,212,14.22840786,212,14.1241188,212,13.87493324,212,14.21448994,212,13.71776772,212,13.6075449,212,13.72618198
211,22.53034592,211,17.05300903,211,14.35034466,211,13.96378326,211,14.75036907,211,14.49921322,211,14.17793655,211,14.16293812,211,13.71673489,211,14.02069283,211,13.89646339
210,22.23487663,210,17.22345161,210,14.51898193,210,13.78210068,210,14.42314053,210,14.85645771,210,14.38633823,210,14.56079769,210,14.1824646,210,13.9920969,210,14.08304405
209,21.78772545,209,17.26742363,209,14.79498005,209,14.44166756,209,14.67245102,209,14.83114243,209,14.55864143,209,14.83819485,209,14.40888023,209,14.66208553,209,14.33709431
208,21.36629295,208,17.88638306,208,15.02044964,208,15.0393858,208,14.99407864,208,15.10299873,208,14.68856907,208,14.5445528,208,14.36936283,208,14.69677353,208,14.64712143
207,20.95993805,207,18.27181244,207,15.5279789,207,14.86189365,207,15.40695286,207,15.31355381,207,15.17318916,207,14.76970768,207,14.75345039,207,15.14121151,207,15.04496002
206,20.4425354,206,18.71037674,206,15.66694641,206,14.9935503,206,16.09454536,206,16.63566589,206,15.53905773,206,15.30064774,206,15.58424091,206,15.36433411,206,14.89317131
205,20.00971603,205,19.2141304,205,16.02050972,205,15.75230503,205,16.53802872,205,16.05508423,205,15.85121441,205,15.45525742,205,15.62604427,205,15.52516365,205,15.99430847
204,19.54977798,204,19.51158333,204,16.26616859,204,15.60231876,204,17.22330666,204,17.41539192,204,16.88232231,204,15.72466373,204,15.66768169,204,15.76407719,204,15.60122108
203,19.09703827,203,19.70617676,203,16.67589378,203,16.6795845,203,17.34547234,203,17.09982872,203,16.40369225,203,15.94906712,203,16.32224655,203,16.24260712,203,16.31512642
202,18.582798,202,20.87203026,202,17.3013916,202,16.34626007,202,17.0004673,202,17.70972061,202,16.46657372,202,16.4369812,202,16.56999016,202,16.89541054,202,16.58073425
201,18.19125748,201,20.75103188,201,17.42695427,201,16.65367317,201,17.41412163,201,17.66027832,201,16.78093147,201,16.70926285,201,17.06333542,201,17.83306313,201,16.63822174
200,17.68188286,200,21.42201805,200,17.76891327,200,17.31141472,200,18.0847683,200,18.14679337,200,17.1165657,200,17.29228401,200,17.40710831,200,17.07710838,200,17.29312134
199,17.2553196,199,21.45887184,199,18.46177673,199,17.55843353,199,18.37487602,199,18.42760086,199,17.61616707,199,17.25674629,199,17.27806664,199,17.14057541,199,17.89089203
198,16.7613678,198,22.50897217,198,18.50901604,198,17.739254,198,18.91017723,198,18.87177467,198,17.73506165,198,18.24032021,198,17.73692131,198,17.34503174,198,18.50994301
197,16.3806076,197,22.64658165,197,18.76226234,197,17.80005455,197,19.03899956,197,19.04620743,197,18.45720482,197,18.19813156,197,18.12152672,197,17.65850639,197,17.88936615
196,15.38806725,196,23.11335754,196,20.05975723,196,19.00293159,196,19.88638306,196,20.02262306,196,19.02326393,196,19.45218658,196,18.82588959,196,18.31697464,196,19.07846832
195,14.1588192,195,24.45448685,195,20.37440491,195,19.86321449,195,21.28617859,195,21.33371544,195,20.3831501,195,19.79100037,195,20.079422,195,19.5136261,195,20.56259918
194,13.13684273,194,26.25332832,194,21.71757317,194,21.23010254,194,22.56999016,194,22.9057045,194,21.5826416,194,20.93115616,194,21.4743824,194,20.90937614,194,21.32810593
193,13.59887695,193,25.35760117,193,21.18273926,193,20.02144241,193,21.26010513,193,21.58649063,193,20.68441582,193,19.66642952,193,20.24699402,193,19.52461243,193,20.47343826
192,13.44327927,192,25.34673309,192,20.87018585,192,19.88889694,192,21.29208374,192,21.43325233,192,20.21418953,192,20.09896851,192,20.19301414,192,19.30205154,192,19.76264
191,12.72733688,191,25.91955376,191,21.58287621,191,20.6022377,191,22.33868408,191,22.50632286,191,21.34382248,191,20.00515175,191,20.77286148,191,19.52524185,191,20.60813332
190,11.93065929,190,27.39193153,190,21.66902351,190,21.40193367,190,23.06155777,190,23.15324593,190,21.97314644,190,20.34554291,190,21.63471794,190,20.61480331,190,21.26987648
,,,,,,,,,,,,,,,,,,,,,
