100.582	3192.4
101.867	3114.4
103.152	3095.2
104.437	3089.4
105.721	3085.4
107.004	3078.4
108.287	3022.2
109.571	3037.6
110.853	3046.2
112.136	3031.8
113.418	3009.2
114.7	3007.2
115.981	3014
117.262	2986.6
118.543	2957.8
119.823	2934.8
121.103	2889.2
122.383	2839
123.663	2829.2
124.942	2844
126.221	2804.2
127.499	2771.8
128.777	2763
130.056	2750.6
131.333	2722.6
132.61	2719.2
133.887	2699.4
135.163	2681.4
136.439	2648.4
137.715	2645.2
138.992	2647.2
140.267	2617
141.541	2554
142.816	2542.4
144.09	2529.8
145.364	2501.6
146.637	2471.6
147.911	2438.4
149.184	2403.4
150.457	2413.8
151.729	2389.2
153.001	2344.6
154.273	2309.6
155.544	2310.8
156.815	2301
158.086	2259
159.356	2276.2
160.626	2239.4
161.896	2240.2
163.165	2223.8
164.434	2216.4
165.703	2231.2
166.971	2183.8
168.24	2138.6
169.507	2144.8
170.774	2148.2
172.042	2121.8
173.309	2088.6
174.575	2091.8
175.841	2085.8
177.107	2041.4
178.373	2017.4
179.637	2011.4
180.902	2035
182.167	2014.6
183.431	1963.2
184.695	1931.6
185.958	1935.2
187.222	1898.6
188.485	1910.4
189.747	1863.4
191.009	1865.2
192.272	1859.2
193.534	1840.2
194.795	1853.8
196.055	1855.4
197.316	1832.2
198.577	1828
199.837	1801.8
201.096	1784.4
202.356	1826.8
203.615	1824.6
204.873	1790.8
206.132	1808.4
207.39	1808.4
208.648	1816.4
209.905	1777.2
211.162	1755.6
212.419	1756.4
213.675	1781
214.932	1757.6
216.187	1744.8
217.443	1719.4
218.697	1704
219.953	1693.6
221.207	1668.8
222.462	1671.6
223.715	1675.6
224.969	1667.6
226.222	1656.8
227.475	1625.8
228.727	1650.2
229.98	1638.8
231.232	1611.6
232.483	1620.6
233.734	1614.8
234.986	1591.6
236.236	1612.8
237.486	1598.8
238.737	1593.2
239.986	1576.2
241.235	1594.8
242.484	1583.6
243.733	1579.2
244.981	1621.2
246.229	1614.8
247.477	1605.2
248.725	1655.2
249.971	1615
251.219	1586.6
252.465	1615
253.711	1602.4
254.957	1562.8
256.203	1558.8
257.448	1570.2
258.693	1551.6
259.937	1549.6
261.181	1522.2
262.425	1517.8
263.669	1513.8
264.912	1483.4
266.155	1491.6
267.398	1502.2
268.64	1508.4
269.881	1466
271.123	1472
272.364	1511.2
273.605	1428.6
274.846	1462.6
276.086	1450.8
277.326	1457.6
278.566	1451
279.806	1437.8
281.045	1439.4
282.283	1422.2
283.522	1415.8
284.76	1409.8
285.998	1415.4
287.235	1387.8
288.473	1389.8
289.71	1399.4
290.946	1387
292.182	1394.2
293.418	1378.4
294.654	1367.2
295.888	1385.8
297.123	1367.2
298.358	1358.2
299.592	1362.8
300.826	1345.6
302.06	1342
303.293	1337.4
304.526	1312.2
305.759	1297.2
306.991	1300.8
308.223	1309.6
309.455	1301.8
310.687	1269.4
311.917	1275
313.148	1257.8
314.379	1253.8
315.609	1230
316.839	1259.4
318.068	1252
319.297	1244.8
320.526	1214.6
321.754	1245.8
322.982	1218.2
324.21	1222.8
325.438	1237.8
326.665	1220.2
327.892	1191.2
329.118	1207.6
330.345	1186.8
331.571	1167
332.797	1163.4
334.022	1156.6
335.247	1193.8
336.471	1164
337.696	1141.8
338.92	1173
340.144	1141.8
341.367	1126.4
342.591	1134.4
343.813	1127
345.036	1111.8
346.257	1105.4
347.48	1092.4
348.701	1117
349.922	1093.2
351.143	1085
352.363	1111.8
353.583	1072.4
354.803	1075.6
356.023	1076.2
357.243	1079
358.462	1054.8
359.68	1024.4
360.899	1041
362.117	1038.6
363.334	1049
364.551	1052.2
365.769	1030.4
366.986	1026
368.202	1004.4
369.418	993.6
370.633	1002
371.849	996.2
373.065	987.6
374.279	983
375.494	994.6
376.708	966
377.921	950.8
379.136	982
380.349	964.2
381.562	927
382.774	945.4
383.987	938.8
385.198	944
386.41	920.2
387.621	930.8
388.832	940
390.043	893.4
391.253	914.8
392.463	915.8
393.674	902.4
394.883	905.8
396.092	913.2
397.301	904
398.509	910
399.717	901.8
400.925	903.8
402.133	900.6
403.34	891.8
404.547	886.8
405.753	888
406.96	900.6
408.165	879.2
409.371	880.2
410.576	871
411.781	866.6
412.986	866.2
414.191	850.8
415.394	892
416.598	871
417.802	866.6
419.005	885.6
420.208	876.8
421.41	849.8
422.613	878
423.815	862.6
425.016	862
426.217	841.6
427.418	845.6
428.619	852.4
429.818	851.2
431.019	828.2
432.218	862.6
433.418	870.4
434.617	828
435.815	845.6
437.014	835.8
438.212	809.8
439.41	836.8
440.607	843.2
441.805	831.8
443.001	824.8
444.198	806.2
445.394	831.2
446.59	806.6
447.785	820.2
448.98	809.8
450.175	827.6
451.37	806.8
452.564	818.6
453.758	817.2
454.952	811.8
456.145	780.2
457.339	787
458.531	801.6
459.724	790
460.916	775.8
462.107	787
463.299	803.2
464.49	773.6
465.681	798.4
466.871	806.2
468.062	809.4
469.252	798.2
470.441	792.8
471.631	784.6
472.819	785.2
474.008	781
475.196	790.4
476.385	766.8
477.572	775.8
478.76	778.8
479.946	795.8
481.133	781
482.32	773
483.506	788
484.692	759.4
485.877	763
487.063	781
488.247	783.2
489.432	815
490.616	772
491.8	772.6
492.984	784.2
494.167	746.2
495.35	734.2
496.533	769.2
497.715	747.8
498.897	724.4
500.079	736.4
501.26	716
502.441	718
503.622	701.6
504.803	711
505.983	697.4
507.163	704.8
508.342	699.4
509.522	680.2
510.701	698
511.88	666.4
513.058	675
514.236	682.8
515.413	662.6
516.591	677.4
517.768	677.6
518.945	674
520.121	657.6
521.297	681.2
522.473	681.6
523.648	664.8
524.823	680.4
525.998	663.6
527.173	658.2
528.348	687
529.522	656.8
530.694	676.6
531.868	681.4
533.041	666
534.214	643.4
535.386	665.4
536.558	641.6
537.731	655.4
538.902	656.4
540.073	660
541.244	642.4
542.414	654.8
543.585	668.8
544.754	653.2
545.924	647.4
547.094	638.8
548.262	634.4
549.431	648.2
550.6	636
551.767	629.8
552.935	618
554.103	614.6
555.27	618
556.436	632.6
557.603	634.4
558.769	614.8
559.935	633.8
561.1	619.6
562.266	621.2
563.431	632
564.595	618.2
565.759	631
566.924	612.6
568.087	618.6
569.25	619.4
570.414	620.4
571.576	607
572.739	599.8
573.901	598.6
575.062	611
576.224	618
577.385	600
578.546	610
579.707	597.2
580.867	605.8
582.028	602.4
583.187	619.4
584.347	600.4
585.505	600.8
586.664	606.6
587.822	616.8
588.98	587
590.138	605.6
591.296	607.4
592.453	593.4
593.61	584
594.767	612
595.922	591.2
597.079	600.8
598.234	609.8
599.39	610.6
600.544	620.4
601.699	606.4
602.854	618.6
604.008	608.4
605.161	582
606.315	610.4
607.468	595.6
608.621	605.2
609.774	610.2
610.926	603.2
612.078	592.8
613.229	599.6
614.381	577.2
615.532	599.2
616.682	603.6
617.833	591.2
618.983	574.6
620.133	587.2
621.282	584.8
622.431	585.8
623.58	593.2
624.729	581
625.877	576
627.025	573.4
628.172	591
629.32	587.6
630.467	583.2
631.614	588.2
632.76	582.6
633.906	573
635.052	575
636.197	564.4
637.343	580.6
638.488	543.8
639.632	565.8
640.776	568.4
641.92	568
643.064	565
644.207	587.2
645.35	591.6
646.493	570.2
647.635	544.8
648.777	558.8
649.919	590.2
651.06	558.8
652.202	562.2
653.342	574
654.483	575.2
655.624	547.2
656.764	552
657.903	549.6
659.043	556.4
660.181	553.4
661.32	570
662.459	569.4
663.596	541.2
664.735	540.2
665.872	564.4
667.009	540.2
668.146	559.2
669.282	557
670.419	552
671.555	532.8
672.69	541.8
673.826	544.2
674.96	553.2
676.096	537.2
677.23	547.6
678.364	567.6
679.498	539.6
680.631	539.8
681.765	558.2
682.897	563.4
684.03	533.4
685.163	551.2
686.294	556.2
687.426	555.4
688.557	546.6
689.689	545.8
690.819	568.4
691.949	565.2
693.079	547
694.21	572.2
695.339	551.4
696.468	556.4
697.597	555.6
698.725	555.2
699.854	552.2
700.982	568.4
702.11	567
703.237	573.4
704.364	561.8
705.491	555
706.617	558.2
707.744	550.6
708.87	542.6
709.995	541.6
711.12	556.6
712.245	553.4
713.37	544.4
714.495	541
715.618	547.6
716.742	536.4
717.865	546.4
718.989	559.6
720.112	547.8
721.234	556.6
722.356	541.8
723.478	552.2
724.6	547.4
725.721	549.2
726.842	549.2
727.962	563.8
729.083	543
730.203	548
731.323	556
732.442	552
733.562	548.4
734.681	558.6
735.799	566.4
736.917	550.8
738.036	534
739.153	537.2
740.27	535.8
741.387	537
742.505	544.4
743.62	540.8
744.736	540.2
745.853	522
746.968	526
748.083	537
749.199	537.2
750.313	536
751.427	546.6
752.541	552.4
753.655	539.6
754.768	544.6
755.882	547.6
756.994	553.6
758.107	506
759.219	528.2
760.331	527.8
761.443	532.6
762.554	518.4
763.665	528.2
764.776	543.6
765.885	526.2
766.996	528.6
768.106	546.4
769.215	545.6
770.324	535.4
771.434	524.6
772.542	521.6
773.65	542.8
774.758	531.2
775.865	529.8
776.973	544.6
778.081	511.6
779.187	533
780.293	541.4
781.399	528.6
782.506	537.6
783.611	543.2
784.716	532.4
785.821	527.4
786.926	523.2
788.03	540
789.134	526.4
790.238	498.4
791.341	512.8
792.444	552.4
793.547	519.8
794.65	505.6
795.752	526.2
796.854	532.8
797.956	523.2
799.057	507.2
800.158	518.4
801.259	534
802.359	497.8
803.459	517.6
804.559	524.4
805.659	524.2
806.758	499.6
807.857	517.6
808.955	542.4
810.053	483.2
811.152	512.4
812.25	523
813.347	511.8
814.444	524
815.541	532.8
816.638	526.8
817.733	506.2
818.83	508.8
819.925	526.4
821.02	516.6
822.115	506.8
823.21	511
824.305	516
825.398	512
826.492	518.4
827.586	507
828.679	537.8
829.772	521.4
830.865	512
831.957	517.2
833.049	523.8
834.141	504.2
835.232	528.4
836.323	533
837.414	529.8
838.505	529.6
839.595	532
840.685	525.6
841.774	530.4
842.864	510.8
843.952	518.6
845.041	521
846.129	496
847.218	520.4
848.306	525.7
849.393	515
850.48	508.8
851.567	524
852.654	516.6
853.74	522.4
854.826	510
855.912	512.4
856.997	503
858.082	498.2
859.167	493.2
860.252	516.4
861.336	486.4
862.42	501
863.504	505.6
864.587	504.6
865.67	503.2
866.753	501.4
867.835	512
868.917	506
869.999	504.6
871.081	507
872.162	513.6
873.243	494.6
874.323	493.8
875.404	488.2
876.484	504.4
877.564	493.2
878.643	499
879.722	497.8
880.802	479.6
881.88	483.2
882.958	508.8
884.036	510.6
885.113	493.4
886.191	493.6
887.268	481.8
888.344	483.8
889.421	501
890.498	497.4
891.573	476.2
892.649	490.2
893.724	487.2
894.799	487
895.874	511.2
896.948	495.2
898.022	502.2
899.096	503
900.17	487
901.243	482.2
902.315	488.6
903.389	498.4
904.461	488
905.533	482.8
906.605	492.4
907.676	501.2
908.747	488.8
909.818	483.6
910.888	484.8
911.958	479.8
913.028	472.8
914.098	488.2
915.167	497
916.237	489.8
917.306	472.2
918.374	485.2
919.442	510.8
920.51	477
921.577	492
922.644	481.8
923.711	485
924.778	487.6
925.845	490.2
926.911	499.8
927.977	469
929.042	482.6
930.107	484
931.173	485.6
932.237	471.4
933.301	475.4
934.365	494.6
935.429	489
936.492	479.6
937.556	482
938.619	481.6
939.681	470.6
940.743	476.2
941.805	469
942.867	485.4
943.928	468.8
944.989	469.8
946.05	493.4
947.11	483.8
948.17	463.4
949.23	458
950.29	484.2
951.349	474
952.409	468.2
953.467	467.8
954.526	490.6
955.584	466
956.641	476.8
957.699	472.2
958.756	470.2
959.813	472.2
960.869	470.6
961.926	461.2
962.982	467.6
964.038	464
965.094	471.8
966.149	468.6
967.204	456.2
968.258	468.8
969.312	465.6
970.366	471.6
971.42	445.6
972.473	477.4
973.527	481.8
974.58	469
975.631	468.2
976.684	456.8
977.736	462.4
978.787	463
979.839	459.6
980.89	478.8
981.94	467.4
982.991	463.6
984.041	461.2
985.091	470.2
986.141	464.8
987.19	443.8
988.239	478.4
989.288	463.4
990.336	468
991.384	474.2
992.432	484.4
993.48	462.2
994.527	454
995.574	478.2
996.62	482
997.666	477.2
998.713	476.2
999.759	476
1000.8	459
1001.85	466.8
1002.89	474
1003.94	475.2
1004.98	472.4
1006.03	458.4
1007.07	464.4
1008.11	482.6
1009.16	452
1010.2	469.8
1011.24	472.4
1012.29	462.2
1013.33	447
1014.37	470
1015.41	482.8
1016.45	456.2
1017.49	456.4
1018.53	468.4
1019.57	479.4
1020.61	447.4
1021.65	457.4
1022.69	449.2
1023.73	454
1024.77	452.6
1025.81	480.4
1026.85	472
1027.88	462
1028.92	453.2
1029.96	467
1031	463.2
1032.03	446.6
1033.07	458.8
1034.1	444.2
1035.14	452.6
1036.18	453
1037.21	470.4
1038.25	467.4
1039.28	450
1040.32	445
1041.35	468.4
1042.38	457.4
1043.42	462
1044.45	438.2
1045.48	463.4
1046.52	450
1047.55	444.6
1048.58	454.2
1049.61	460.4
1050.64	443.6
1051.67	445.6
1052.71	432.6
1053.74	461.6
1054.77	446
1055.8	456
1056.83	451.2
1057.85	443.2
1058.88	426.4
1059.91	456.8
1060.94	449.6
1061.97	449
1063	452.6
1064.03	460.6
1065.05	456.6
1066.08	440.2
1067.11	446.8
1068.13	469
1069.16	442.2
1070.19	449.8
1071.21	437.8
1072.24	446.4
1073.26	442
1074.29	450
1075.31	457
1076.34	443.4
1077.36	444.2
1078.38	451.4
1079.41	444.4
1080.43	447.6
1081.45	451
1082.47	459.6
1083.5	454.4
1084.52	437.2
1085.54	446.2
1086.56	446.4
1087.58	440.6
1088.6	446.6
1089.62	438.6
1090.64	443.2
1091.66	447
1092.68	429.2
1093.7	458.2
1094.72	435.2
1095.74	444.6
1096.76	448
1097.78	444.8
1098.79	424.6
1099.81	432.8
1100.83	436.6
1101.85	440
1102.86	427.2
1103.88	431.4
1104.9	443.4
1105.91	441.4
1106.93	446
1107.94	439.6
1108.96	446.8
1109.97	439.4
1110.99	429.8
1112	451
1113.01	428
1114.03	434.4
1115.04	424.4
1116.05	450.4
1117.07	439.4
1118.08	433
1119.09	437
1120.1	443.8
1121.11	430.2
1122.13	434.8
1123.14	449
1124.15	426.4
1125.16	419.4
1126.17	424.6
1127.18	445.2
1128.19	433.8
1129.2	422.6
1130.2	423.4
1131.21	441
1132.22	412.8
1133.23	432.2
1134.24	434.6
1135.25	437.2
1136.25	422.2
1137.26	426.6
1138.27	433.8
1139.27	431.6
1140.28	426.8
1141.28	432.4
1142.29	418.6
1143.29	442
1144.3	413
1145.3	416.4
1146.31	428.2
1147.31	420.4
1148.32	431.2
1149.32	437.353
1150.32	452.967
1151.33	424.193
1152.33	416.106
1153.33	426.241
1154.33	424.76
1155.33	422.005
1156.34	435.682
1157.34	430.825
1158.34	431.549
1159.34	421.811
1160.34	442.64
1161.34	436.135
1162.34	426.027
1163.34	431.873
1164.34	438.216
1165.34	433.225
1166.33	421.097
1167.33	443.169
1168.33	433.444
1169.33	422.308
1170.33	422.444
1171.32	432.024
1172.32	435.122
1173.32	422.446
1174.31	433.173
1175.31	443.818
1176.31	423.822
1177.3	426.229
1178.3	433.871
1179.29	437.003
1180.29	424.202
1181.28	432.48
1182.27	440.457
1183.27	421.233
1184.26	428.398
1185.25	441.401
1186.25	436.015
1187.24	427.592
1188.23	428.322
1189.22	438.127
1190.22	428.881
1191.21	425.746
1192.2	419.565
1193.19	430.557
1194.18	424.44
1195.17	429.212
1196.16	431.722
1197.15	438.878
1198.14	435.843
1199.13	428.03
1200.12	431.614
1201.11	423.249
1202.09	434.06
1203.08	433.435
1204.07	434.968
1205.06	429.31
1206.04	419.568
1207.03	429.41
1208.02	431.977
1209	429.936
1209.99	427.501
1210.98	427.979
1211.96	427.16
1212.95	430.051
1213.93	431.875
1214.92	435.849
1215.9	440.886
1216.89	434.844
1217.87	422.865
1218.85	427.641
1219.84	423.063
1220.82	434.359
1221.8	430.779
1222.78	422.202
1223.77	422.65
1224.75	424.879
1225.73	431.545
1226.71	441.783
1227.69	438.208
1228.67	432.161
1229.65	430.214
1230.63	434.701
1231.61	443.72
1232.59	438.868
1233.57	437.495
1234.55	437.025
1235.53	438.344
1236.51	443.654
1237.49	442.496
1238.46	441.594
1239.44	431.237
1240.42	433.73
1241.4	440.919
1242.37	450.931
1243.35	435.976
1244.32	430.732
1245.3	441.004
1246.28	440.297
1247.25	431.733
1248.23	433.043
1249.2	432.296
1250.18	434.834
1251.15	437.234
1252.12	434.019
1252.72	440
1253.73	430.8
1254.74	427.8
1255.75	437.8
1256.75	455
1257.76	418.4
1258.77	425.4
1259.78	434
1260.79	424.2
1261.79	429.8
1262.8	446.4
1263.81	444.6
1264.81	430.8
1265.82	428.6
1266.82	424.6
1267.83	437.2
1268.83	421.4
1269.84	408.6
1270.84	424.6
1271.85	430.2
1272.85	446.2
1273.86	419
1274.86	417.8
1275.86	434
1276.87	428.4
1277.87	416
1278.87	419.8
1279.88	416.8
1280.88	410.6
1281.88	422.4
1282.88	439.4
1283.88	427
1284.88	421.6
1285.88	423.6
1286.89	416.4
1287.89	423
1288.89	421
1289.89	430.6
1290.89	404.2
1291.89	411.4
1292.88	424.8
1293.88	429.8
1294.88	438.6
1295.88	424.6
1296.88	434.6
1297.88	421.2
1298.88	422.2
1299.87	421.4
1300.87	426.2
1301.87	422.4
1302.86	398
1303.86	412.8
1304.86	417.4
1305.85	426.4
1306.85	416.2
1307.85	416.4
1308.84	405.2
1309.84	425
1310.83	433.2
1311.83	419
1312.82	392.8
1313.81	412.6
1314.81	427.6
1315.8	414.8
1316.8	425
1317.79	408.2
1318.78	404.2
1319.77	413.2
1320.77	413.2
1321.76	422.8
1322.75	413.4
1323.74	417
1324.73	407
1325.72	413.8
1326.72	410.2
1327.71	423
1328.7	410.8
1329.69	423.4
1330.68	414.8
1331.67	411.8
1332.66	417.6
1333.65	424.8
1334.63	405.6
1335.62	404.6
1336.61	408.8
1337.6	425.6
1338.59	414.8
1339.58	422
1340.56	407.6
1341.55	393.6
1342.54	402
1343.53	416.2
1344.51	408
1345.5	382.6
1346.48	403.8
1347.47	430
1348.45	392.8
1349.44	414.6
1350.43	409.4
1351.41	397.8
1352.4	404
1353.38	399.2
1354.36	413.2
1355.35	405.4
1356.33	397.4
1357.31	382.8
1358.3	404.6
1359.28	371.8
1360.26	397.2
1361.25	399
1362.23	411
1363.21	395.8
1364.19	394.2
1365.17	391.2
1366.15	388.8
1367.14	378.2
1368.12	380.4
1369.1	393.6
1370.08	393
1371.06	391.2
1372.04	371.4
1373.02	388
1373.99	398.2
1374.97	376.6
1375.95	392.6
1376.93	376
1377.91	372.6
1378.89	376.8
1379.86	389.6
1380.84	378.2
1381.82	374.8
1382.8	378.6
1383.77	383
1384.75	375.6
1385.73	374
1386.7	393
1387.68	368
1388.65	374.4
1389.63	382.4
1390.6	393.6
1391.58	371.2
1392.55	370.6
1393.53	387.6
1394.5	384.4
1395.48	382.2
1396.45	377.4
1397.42	390.8
1398.4	373.8
1399.37	374.4
1400.34	380.8
1401.31	385.4
1402.29	373
1403.26	370.4
1404.23	385.2
1405.2	372
1406.17	379.4
1407.14	385
1408.11	388
1409.08	376.6
1410.05	366.2
1411.02	382.2
1411.99	380
1412.96	369.4
1413.93	363.6
1414.9	373.2
1415.87	369.6
1416.84	372
1417.81	370.4
1418.78	393.8
1419.74	380.2
1420.71	378.8
1421.68	372
1422.65	379.2
1423.61	366.4
1424.58	385.2
1425.55	369
1426.51	363.6
1427.48	357.8
1428.44	375.8
1429.41	379.8
1430.37	361.6
1431.34	359
1432.3	379.8
1433.27	373.8
1434.23	345.6
1435.2	366.8
1436.16	371
1437.12	361.8
1438.09	365.2
1439.05	356.6
1440.01	362.8
1440.97	362.8
1441.94	374.2
1442.9	359.6
1443.86	365.8
1444.82	357.6
1445.78	379.8
1446.74	366.2
1447.7	338.6
1448.67	362.6
1449.63	373.8
1450.59	346.6
1451.55	355.4
1452.5	358.6
1453.46	360.2
1454.42	361.6
1455.38	355.2
1456.34	343.8
1457.3	353.8
1458.26	338.6
1459.21	358.2
1460.17	364
1461.13	365.8
1462.09	364.2
1463.04	349.8
1464	374.2
1464.96	357.8
1465.91	352
1466.87	353
1467.82	359.8
1468.78	341.6
1469.73	351
1470.69	348
1471.64	358.8
1472.6	349.8
1473.55	348.4
1474.51	346.4
1475.46	350.4
1476.41	342.8
1477.37	348.8
1478.32	347.4
1479.27	330.6
1480.23	354.6
1481.18	332.8
1482.13	345.6
1483.08	333
1484.03	348.6
1484.98	334.6
1485.94	345.8
1486.89	330.8
1487.84	335
1488.79	342.8
1489.74	334.6
1490.69	356.8
1491.64	345.2
1492.59	362.8
1493.54	330.2
1494.48	341.6
1495.43	358.8
1496.38	357.6
1497.33	358.2
1498.28	356.8
1499.23	349.2
1500.17	342.4
1501.12	356.6
1502.07	350.8
1503.01	345.8
1503.96	338.8
1504.91	331.8
1505.85	351.6
1506.8	327.8
1507.74	346.2
1508.69	343.8
1509.64	350.4
1510.58	330.8
1511.52	343.8
1512.47	357.2
1513.41	344
1514.36	347.6
1515.3	328.8
1516.24	337
1517.19	329.8
1518.13	333.6
1519.07	337
1520.01	347.2
1520.96	326.4
1521.9	338.2
1522.84	349.4
1523.78	331.6
1524.72	312.6
1525.66	330.8
1526.6	329.2
1527.55	331.8
1528.49	312
1529.43	347.8
1530.37	336.8
1531.3	323.2
1532.24	323.4
1533.18	344
1534.12	322.8
1535.06	324.8
1536	327.8
1536.94	321
1537.88	317.6
1538.81	327.8
1539.75	354.6
1540.69	321.8
1541.62	304.8
1542.56	332.4
1543.5	331.2
1544.43	314.8
1545.37	310.2
1546.3	326.2
1547.24	319.2
1548.18	324.2
1549.11	327.2
1550.05	335.4
1550.98	320.6
1551.91	313.8
1552.85	324.4
1553.78	316.2
1554.72	316.8
1555.65	310.6
1556.58	326
1557.51	329.4
1558.45	305.8
1559.38	321
1560.31	317.4
1561.24	317.8
1562.17	321.4
1563.11	319.4
1564.04	349.8
1564.97	309.2
1565.9	312
1566.83	320.6
1567.76	324.4
1568.69	301.2
1569.62	306.8
1570.55	326.6
1571.48	315.8
1572.41	303.8
1573.34	305.8
1574.26	335
1575.19	322.2
1576.12	319.6
1577.05	324.8
1577.98	325.2
1578.9	321.2
1579.83	319.6
1580.76	318.8
1581.68	310.6
1582.61	313.8
1583.54	326.8
1584.46	336
1585.39	309.4
1586.31	309.2
1587.24	325.6
1588.16	316.8
1589.09	313.2
1590.01	310.2
1590.94	319.4
1591.86	314
1592.78	292.8
1593.71	327.2
1594.63	308.6
1595.55	309.8
1596.48	302.4
1597.4	318.2
1598.32	316
1599.24	313
1600.17	310
1601.09	309.4
1602.01	296.8
1602.93	281.6
1603.85	312.4
1604.77	322.6
1605.69	299
1606.61	294.6
1607.53	311.4
1608.45	302.4
1609.37	300.2
1610.29	290
1611.21	289.4
1612.13	291.2
1613.05	306
1613.96	302
1614.88	315
1615.8	285.8
1616.72	283.4
1617.63	301.6
1618.55	301
1619.47	299
1620.38	294.2
1621.3	306.8
1622.22	306
1623.13	280.6
1624.05	297.8
1624.96	291.8
1625.88	288.2
1626.79	270
1627.71	292.2
1628.62	294.6
1629.54	296.6
1630.45	295.4
1631.37	306.8
1632.28	293.8
1633.19	280
1634.1	304.2
1635.02	300.8
1635.93	287.2
1636.84	275
1637.75	302.4
1638.67	282.6
1639.58	286.6
1640.49	304
1641.4	297.2
1642.31	274.6
1643.22	282.6
1644.13	291.8
1645.04	292.2
1645.95	280
1646.86	270.4
1647.77	296
1648.68	309.2
1649.59	289.8
1650.5	290.8
1651.41	294
1652.31	281.2
1653.22	271.2
1654.13	289.4
1655.04	304
1655.95	285.6
1656.85	278.6
1657.76	278.2
1658.67	286.8
1659.57	284.4
1660.48	297
1661.38	290.2
1662.29	273.8
1663.2	288
1664.1	315.4
1665.01	283
1665.91	281.6
1666.81	286.2
1667.72	284.2
1668.62	275.8
1669.53	272.6
1670.43	275.8
1671.33	290.2
1672.24	268
1673.14	282.2
1674.04	303.6
1674.94	280.2
1675.85	282.2
1676.75	291.4
1677.65	284.8
1678.55	282.8
1679.45	271.8
1680.35	282.2
1681.25	284.8
1682.15	270
1683.05	286.4
1683.95	290
1684.85	271.2
1685.75	275.8
1686.65	276.4
1687.55	282.4
1688.45	272.2
1689.35	300
1690.25	301.4
1691.15	268.4
1692.04	276.2
1692.94	272
1693.84	292.8
1694.74	261
1695.63	282.4
1696.53	259.6
1697.43	279.6
1698.32	259.8
1699.22	267.2
1700.11	279.4
1701.01	273
1701.9	260
1702.8	283.4
1703.69	282.6
1704.59	274
1705.48	265
1706.38	277.8
1707.27	288.6
1708.16	263.6
1709.06	264.2
1709.95	285.4
1710.84	269.2
1711.74	268.6
1712.63	267.6
1713.52	273.6
1714.41	279.2
1715.3	260.2
1716.2	277.4
1717.09	260.2
1717.98	259.2
1718.87	268.6
1719.76	267
1720.65	265.6
1721.54	268.2
1722.43	258.4
1723.32	258.2
1724.21	267
1725.1	265.4
1725.99	265
1726.88	254
1727.76	252.4
1728.65	269.8
1729.54	277.6
1730.43	267
1731.31	263
1732.2	260
1733.09	271.8
1733.98	257.6
1734.86	250
1735.75	267.8
1736.63	270.8
1737.52	252
1738.41	272
1739.29	267.6
1740.18	255.6
1741.06	248.4
1741.95	263.6
1742.83	272.8
1743.72	256.8
1744.6	259.2
1745.48	248.2
1746.37	250.4
1747.25	245.6
1748.13	267.2
1749.02	271.6
1749.9	272.2
1750.78	241.8
1751.66	273
1752.54	264.6
1753.43	259
1754.31	248.4
1755.19	258.6
1756.07	252.2
1756.95	243.4
1757.83	254.4
1758.71	255.2
1759.59	247.2
1760.47	246.2
1761.35	259.4
1762.23	267.2
1763.11	237
1763.99	261
1764.87	263.6
1765.74	257.6
1766.62	252
1767.5	263.4
1768.38	259.6
1769.25	246.8
1770.13	245.2
1771.01	251.8
1771.89	245.6
1772.76	248.2
1773.64	236.2
1774.51	249.4
1775.39	247.2
1776.27	234.2
1777.14	249.2
1778.02	247
1778.89	239.8
1779.76	231.6
1780.64	248.6
1781.51	252.8
1782.39	240
1783.26	224.4
1784.13	252
1785.01	249.8
1785.88	242
1786.75	243.6
1787.63	242.6
1788.5	221
1789.37	230
1790.24	238
1791.11	241.6
1791.98	234.4
1792.86	245.8
1793.73	241.8
1794.6	228.6
1795.47	233.8
1796.34	240.8
1797.21	227.8
1798.08	240
1798.95	218.8
1799.82	238.8
1800.68	244.4
1801.55	224.8
1802.42	231
1803.29	246.2
1804.16	224
1805.03	223
1805.89	248.6
1806.76	232
1807.63	233.4
1808.49	217
1809.36	235.2
1810.23	231.8
1811.09	222.2
1811.96	245.8
1812.83	237.6
1813.69	228.8
1814.56	215.6
1815.42	237.4
1816.29	224.2
1817.15	226.2
1818.02	235.2
1818.88	232.4
1819.74	211.8
1820.61	226.8
1821.47	223
1822.33	237.4
1823.2	211.6
1824.06	231.4
1824.92	233.4
1825.78	225.2
1826.65	229.2
1827.51	223.8
1828.37	226
1829.23	229
1830.09	218.6
1830.95	219.4
1831.81	233.4
1832.67	225.6
1833.53	213.8
1834.39	228.8
1835.25	228.2
1836.11	219
1836.97	232.8
1837.83	225.2
1838.69	213
1839.55	218
1840.41	222.2
1841.26	230.2
1842.12	192.2
1842.98	222.8
1843.84	228.6
1844.69	218.6
1845.55	208.6
1846.41	223.8
1847.26	231
1848.12	227.6
1848.98	206.4
1849.83	237.4
1850.69	226.8
1851.54	222.2
1852.4	209
1853.25	227
1854.11	220
1854.96	218.2
1855.82	228
1856.67	214.6
1857.52	214.4
1858.38	207.2
1859.23	225.6
1860.08	213
1860.93	215
1861.79	226.2
1862.64	226.8
1863.49	220.4
1864.34	209.8
1865.19	212
1866.05	227.6
1866.9	197.4
1867.75	209
1868.6	216.4
1869.45	208.2
1870.3	211.4
1871.15	212.4
1872	225.2
1872.85	211.6
1873.7	216.8
1874.55	211.8
1875.4	213.4
1876.24	223.6
1877.09	205.6
1877.94	219.2
1878.79	208.4
1879.64	214.2
1880.48	210.4
1881.33	206.6
1882.18	200.6
1883.02	205.4
1883.87	220.2
1884.72	199.8
1885.56	200
1886.41	201.4
1887.25	206.2
1888.1	203.6
1888.94	196.2
1889.79	205.8
1890.63	208
1891.48	197.8
1892.32	196.2
1893.17	206.2
1894.01	195.4
1894.85	190.6
1895.7	207
1896.54	207
1897.38	193.6
1898.23	189
1899.07	217.8
1899.91	205.2
1900.75	195.6
1901.59	194
1902.44	205.8
1903.28	214.2
1904.12	187
1904.96	215.2
1905.8	200.8
1906.64	202.2
1907.48	189
1908.32	199.2
1909.16	204.6
1910	202.8
1910.84	201.8
1911.68	199
1912.51	199.8
1913.35	182.4
1914.19	191.6
1915.03	205.8
1915.87	196.6
1916.7	185
1917.54	198.6
1918.38	198.8
1919.21	189.2
1920.05	184.8
1920.89	194.6
1921.72	192.6
1922.56	188.6
1923.4	186.8
1924.23	201.2
1925.07	181.6
1925.9	187.8
1926.74	194.8
1927.57	196.6
1928.41	186.8
1929.24	193.2
1930.07	196.4
1930.91	182
1931.74	191.4
1932.57	193.4
1933.41	191.2
1934.24	182.6
1935.07	191
1935.9	201.6
1936.74	201.6
1937.57	190.6
1938.4	182.6
1939.23	193.2
1940.06	182.4
1940.89	187.6
1941.72	192.6
1942.55	188.2
1943.38	190.4
1944.21	177
1945.04	192.2
1945.87	186.6
1946.7	187.8
1947.53	195.6
1948.36	195.2
1949.19	186
1950.02	179
1950.84	191
1951.67	177.8
1952.5	188.2
1953.33	178
1954.15	183.2
1954.98	168
1955.81	171
1956.64	167
1957.46	190.6
1958.29	177.6
1959.11	176.4
1959.94	181.6
1960.76	189.4
1961.59	179.2
1962.41	178.4
1963.24	172.2
1964.06	184.6
1964.89	182
1965.71	170.4
1966.53	189.2
1967.36	174.2
1968.18	176.6
1969	172.8
1969.83	177
1970.65	177.2
1971.47	172.4
1972.3	175.2
1973.12	184.2
1973.94	171.8
1974.76	174.6
1975.58	187.8
1976.4	175.8
1977.22	167.4
1978.04	183
1978.86	166
1979.68	176
1980.5	175
1981.32	180
1982.14	175.4
1982.96	155.2
1983.78	176.8
1984.6	173.6
1985.42	176.2
1986.24	173.4
1987.06	176.4
1987.87	168.2
1988.69	171
1989.51	171.4
1990.32	171.4
1991.14	173.8
1991.96	166.6
1992.78	184
1993.59	170.6
1994.41	149.6
1995.22	170.8
1996.04	179.8
1996.85	174
1997.67	161.682
1998.48	175.527
1999.3	167.247
2000.11	162.842
2000.93	163.993
2001.74	162.807
2002.56	168.837
2003.37	147.525
2004.18	171.96
2004.99	173.807
2005.81	176.904
2006.62	160.612
2007.43	160.367
2008.25	167.282
2009.06	167.949
2009.87	160.098
2010.68	174.93
2011.49	167.263
2012.3	165.817
2013.11	155.909
2013.92	180.205
2014.73	167.931
2015.54	157.659
2016.35	169.1
2017.16	173.937
2017.97	160.681
2018.78	152.999
2019.59	170.494
2020.4	166.518
2021.21	170.219
2022.02	159.44
2022.83	174.631
2023.63	169.794
2024.44	156.879
2025.25	164.114
2026.06	167.401
2026.86	167.487
2027.67	162.803
2028.48	174.061
2029.28	166.042
2030.09	172.55
2030.89	165.399
2031.7	164.358
2032.5	173.328
2033.31	147.093
2034.11	165.7
2034.92	159.38
2035.72	163.383
2036.53	156.199
2037.33	171.909
2038.14	170.285
2038.94	155.582
2039.74	165.464
2040.55	168.081
2041.35	167.473
2042.15	165.311
2042.95	161.432
2043.76	166.825
2044.56	156.687
2045.36	160.107
2046.16	162.481
2046.96	166.384
2047.76	166.256
2048.56	164.249
2049.37	162.212
2050.17	166.001
2050.97	156.472
2051.77	155.391
2052.57	172.336
2053.36	166.578
2054.16	159.199
2054.96	155.086
2055.76	159.183
2056.56	167.777
2057.36	166.88
2058.16	161.567
2058.96	164.962
2059.75	167.06
2060.55	154.254
2061.35	157.651
2062.14	162.865
2062.94	163.698
2063.74	158.197
2064.53	164.864
2065.33	163.188
2066.13	160.417
2066.92	161.808
2067.72	167.028
2068.51	168.33
2069.31	162.365
2070.1	159.698
2070.9	165.599
2071.69	162.481
2072.49	160.371
2073.28	162.594
2074.07	169.946
2074.87	161.134
2075.66	151.639
2076.45	165.176
2077.25	173.072
2078.04	160.031
2078.83	147.936
2079.62	159.655
2080.41	168.535
2081.21	159.786
2081.38	157.2
2082.2	165.2
2083.03	172
2083.86	169
2084.68	160.2
2085.51	165
2086.34	186.4
2087.16	156.2
2087.99	159.2
2088.81	172.4
2089.64	164.2
2090.46	171
2091.29	160.6
2092.11	157.8
2092.94	144
2093.76	159.8
2094.58	160.4
2095.41	167.2
2096.23	169.4
2097.06	148.2
2097.88	158.6
2098.7	149.8
2099.53	142.8
2100.35	162.6
2101.17	167.2
2101.99	157.2
2102.81	160.2
2103.64	155.4
2104.46	165.4
2105.28	158.4
2106.1	134.2
2106.92	165.4
2107.74	167.8
2108.56	151.6
2109.38	156.2
2110.2	166
2111.03	164.6
2111.84	152.8
2112.66	161.2
2113.48	159.2
2114.3	151.6
2115.12	138.4
2115.94	157.8
2116.76	162.8
2117.58	155.4
2118.4	138.6
2119.22	164.6
2120.03	163.6
2120.85	144.2
2121.67	160.8
2122.49	164
2123.3	152.2
2124.12	139.8
2124.94	156.6
2125.76	165.2
2126.57	139.4
2127.39	137.4
2128.2	160.2
2129.02	151
2129.83	139.4
2130.65	142.6
2131.47	154.6
2132.28	135
2133.1	144.8
2133.91	156.2
2134.73	152.4
2135.54	149.4
2136.35	135.2
2137.17	155.2
2137.98	143.6
2138.79	141.6
2139.61	145.2
2140.42	148.4
2141.23	131.8
2142.05	143.2
2142.86	158.8
2143.67	153.4
2144.48	146.8
2145.3	138.4
2146.11	154
2146.92	144.2
2147.73	140.8
2148.54	152.6
2149.35	133.6
2150.16	140.6
2150.97	135.6
2151.79	151
2152.6	142.8
2153.41	131.4
2154.22	154.2
2155.02	139.6
2155.83	137.4
2156.64	132.4
2157.45	138.4
2158.26	153
2159.07	135
2159.88	128
2160.69	144.6
2161.5	138.6
2162.3	139.6
2163.11	130.4
2163.92	139.8
2164.73	132.8
2165.53	135.8
2166.34	141.6
2167.15	137.2
2167.95	132.8
2168.76	137.8
2169.57	143
2170.37	144.6
2171.18	123
2171.98	135.8
2172.79	133
2173.59	128
2174.4	127
2175.2	135.8
2176.01	135.6
2176.81	127.6
2177.62	139.6
2178.42	127.2
2179.22	131.6
2180.03	127.2
2180.83	131.2
2181.63	140.4
2182.44	136
2183.24	112.4
2184.04	128
2184.85	130.4
2185.65	121.8
2186.45	121.4
2187.25	136.2
2188.05	114.6
2188.86	126.6
2189.66	122.2
2190.46	128.6
2191.26	117.4
2192.06	114.2
2192.86	134.4
2193.66	118.6
2194.46	123.2
2195.26	122.4
2196.06	137.8
2196.86	121.8
2197.66	115.6
2198.46	118.8
2199.26	124.8
2200.06	118.4
2200.85	122.2
2201.65	111.8
2202.45	123.2
2203.25	114.2
2204.05	109.8
2204.84	125
2205.64	126.8
2206.44	116.6
2207.24	118.6
2208.03	122.6
2208.83	118.4
2209.63	120
2210.42	124
2211.22	110
2212.01	107.4
2212.81	124.4
2213.61	128.6
2214.4	125.4
2215.2	116.8
2215.99	120.4
2216.79	113.2
2217.58	116.6
2218.37	112.6
2219.17	126
2219.96	119.6
2220.76	100.6
2221.55	110
2222.34	114
2223.14	105.8
2223.93	108
2224.72	112
2225.51	108.8
2226.31	109.4
2227.1	110.8
2227.89	113.2
2228.68	108.4
2229.47	101.2
2230.27	118.2
2231.06	118.4
2231.85	110
2232.64	104.6
2233.43	118.6
2234.22	114.8
2235.01	104.2
2235.8	101.4
2236.59	116.6
2237.38	116.8
2238.17	109.6
2238.96	99
2239.75	114.8
2240.54	105.8
2241.33	105.8
2242.11	102.2
2242.9	96.2
2243.69	96.6
2244.48	106.4
2245.27	100.2
2246.05	114.2
2246.84	101.4
2247.63	104.8
2248.41	107
2249.2	95.4
2249.99	108.2
2250.77	101.4
2251.56	106
2252.35	96
2253.13	106.2
2253.92	111.8
2254.7	116
2255.49	105.4
2256.27	102.6
2257.06	101.6
2257.84	79.2
2258.63	89.6
2259.41	95.2
2260.2	104.6
2260.98	97
2261.76	94.8
2262.55	109.4
2263.33	94.8
2264.11	97
2264.9	103.8
2265.68	110.8
2266.46	91.6
2267.24	104.2
2268.03	109
2268.81	105.6
2269.59	88
2270.37	113.8
2271.15	111.2
2271.93	90.8
2272.71	95.2
2273.5	108
2274.28	91.4
2275.06	98.2
2275.84	103.6
2276.62	94.8
2277.4	90.6
2278.18	84.2
2278.96	88.2
2279.73	96
2280.51	85.4
2281.29	88.4
2282.07	103.6
2282.85	102
2283.63	83.2
2284.41	86.2
2285.18	93.2
2285.96	77.8
2286.74	83.4
2287.52	83.8
2288.29	99.6
2289.07	87.6
2289.85	87.8
2290.62	94.6
2291.4	88
2292.18	89.2
2292.95	100.2
2293.73	94.4
2294.5	87.2
2295.28	85.4
2296.05	100
2296.83	85
2297.6	84.6
2298.38	97.8
2299.15	85
2299.93	93.8
2300.7	74
2301.48	95.2
2302.25	93
2303.02	86.6
2303.8	94.8
2304.57	91.6
2305.34	91.6
2306.11	63.6
2306.89	80
2307.66	98.2
2308.43	87.4
2309.2	72.4
2309.97	87.8
2310.75	97.4
2311.52	92.8
2312.29	79
2313.06	89.8
2313.83	96.4
2314.6	74.6
2315.37	95.8
2316.14	83.6
2316.91	80.4
2317.68	85.2
2318.45	83.4
2319.22	77.8
2319.99	75.2
2320.76	73.8
2321.53	90.8
2322.3	84.6
2323.06	75
2323.83	83.6
2324.6	90.8
2325.37	81
2326.14	76.6
2326.9	71.2
2327.67	90.4
2328.44	79.4
2329.21	89
2329.97	92
2330.74	79.8
2331.5	79.4
2332.27	77.8
2333.04	86.4
2333.8	75.2
2334.57	73.6
2335.33	88
2336.1	80.4
2336.86	72.6
2337.63	91.2
2338.39	78.8
2339.16	79.2
2339.92	73.8
2340.69	73.6
2341.45	89.6
2342.21	72.6
2342.98	65.8
2343.74	83.2
2344.5	76.4
2345.27	75.8
2346.03	74.2
2346.79	82.2
2347.55	73.4
2348.31	77.2
2349.08	82.6
2349.84	72.8
2350.6	72.2
2351.36	76.2
2352.12	79.2
2352.88	72.4
2353.64	73.6
2354.41	80.4
2355.17	81.4
2355.93	67.4
2356.69	69.6
2357.45	65.4
2358.21	67.8
2358.96	69.2
2359.72	75
2360.48	77.2
2361.24	64
2362	64.4
2362.76	67.6
2363.52	72.4
2364.28	63.2
2365.03	69.2
2365.79	71
2366.55	69.8
2367.31	61
2368.06	66.2
2368.82	80.2
2369.58	65.4
2370.33	62.8
2371.09	72.8
2371.85	75.4
2372.6	59.8
2373.36	68.6
2374.11	80
2374.87	69.2
2375.62	55.2
2376.38	73.8
2377.13	78.6
2377.89	71.4
2378.64	66.4
2379.4	73.2
2380.15	66.6
2380.9	74.2
2381.66	78.4
2382.41	67.4
2383.16	70.6
2383.92	52.8
2384.67	72
2385.42	73.6
2386.18	76.6
2386.93	66.2
2387.68	67.2
2388.43	76
2389.18	40.4
2389.94	64.4
2390.69	77.6
2391.44	69.4
2392.19	57
2392.94	59.4
2393.69	72.6
2394.44	68.2
2395.19	62.8
2395.94	72.8
2396.69	74
2397.44	55.6
2398.19	64.6
2398.94	77.6
2399.69	57.8
2400.44	44.8
2401.19	66.2
2401.93	73.4
2402.68	60.4
2403.43	60.2
2404.18	70.6
2404.93	59.4
2405.67	46.8
2406.42	58.6
2407.17	67
2407.92	66.4
2408.66	52
2409.41	71
2410.16	72.6
2410.9	56.2
2411.65	51
2412.39	70
2413.14	59.4
2413.89	53.6
2414.63	59.2
2415.38	64.8
2416.12	56.2
2416.86	53.4
2417.61	64.4
2418.35	63.4
2419.1	52.6
2419.84	61
2420.59	72.6
2421.33	71.6
2422.07	63
2422.82	58.8
2423.56	58.6
2424.3	50.6
2425.04	66
2425.79	62.8
2426.53	64.8
2427.27	57
2428.01	58.4
2428.75	60.2
2429.5	61
2430.24	46.4
2430.98	58.6
2431.72	68.8
2432.46	55
2433.2	63.8
2433.94	56
2434.68	54.6
2435.42	51.2
2436.16	60.6
2436.9	61.6
2437.64	55.6
2438.38	53
2439.12	69.6
2439.86	71
2440.59	59
2441.33	54.8
2442.07	62
2442.81	59.2
2443.55	46
2444.28	60.4
2445.02	55.8
2445.76	46
2446.5	54.2
2447.23	61.6
2447.97	52.6
2448.71	46.2
2449.44	54.6
2450.18	51
2450.91	58.2
2451.65	47.4
2452.39	46.4
2453.12	54
2453.86	45
2454.59	46.8
2455.33	67
2456.06	62.2
2456.79	56.8
2457.53	50.6
2458.26	59.4
2459	48.4
2459.73	44.6
2460.46	56.4
2461.2	49.6
2461.93	50.2
2462.66	38.4
2463.4	57.6
2464.13	60.6
2464.86	47.6
2465.59	43
2466.32	58.2
2467.06	41
2467.79	42.2
2468.52	43.6
2469.25	54.4
2469.98	45.2
2470.71	43.4
2471.44	58.8
2472.17	50.2
2472.9	41.4
2473.63	39.4
2474.36	60
2475.09	47.2
2475.82	36.4
2476.55	53.4
2477.28	48.8
2478.01	38.8
2478.74	41.6
2479.47	54.4
2480.19	42.6
2480.92	39
2481.65	46.8
2482.38	52.6
2483.11	48.2
2483.83	45.8
2484.56	46.6
2485.29	50.8
2486.01	38.6
2486.74	45.6
2487.47	46.6
2488.19	28.6
2488.92	29.6
2489.65	45.6
2490.37	57.4
2491.1	46.6
2491.82	39.6
2492.55	51.2
2493.27	49.5
2494	46.6
2494.72	39.6
2495.45	51.8
2496.17	47.4
2496.89	32.4
2497.62	44.8
2498.34	58.8
2499.06	31.8
2499.79	37.6
2500.51	54.2
2501.23	36.8
2501.96	41.6
2502.68	37
2503.4	46
2504.12	45.6
2504.84	34.4
2505.57	48
2506.29	44.2
2507.01	37.6
2507.73	43.8
2508.45	49.8
2509.17	49.4
2509.89	32
2510.61	33
2511.33	51.6
2512.05	41.8
2512.77	24
2513.49	42.2
2514.21	37.6
2514.93	40.8
2515.65	25.4
2516.37	57.4
2517.09	50.6
2517.81	26.6
2518.52	47.2
2519.24	50.2
2519.96	44
2520.68	25.6
2521.4	43
2522.11	43
2522.83	36.6
2523.55	31.2
2524.26	53
2524.98	30.2
2525.7	28.8
2526.41	43.4
2527.13	49.8
2527.84	27.6
2528.56	32.6
2529.28	41.6
2529.99	36.2
2530.71	38.4
2531.42	34.6
2532.14	43.4
2532.85	29
2533.56	37.6
2534.28	34
2534.99	40.6
2535.71	32.4
2536.42	30.4
2537.13	31.2
2537.85	38.2
2538.56	39.8
2539.27	28
2539.98	48
2540.7	31.8
2541.41	30.8
2542.12	32.4
2542.83	35.8
2543.54	29.8
2544.26	9.8
2544.97	41.8
2545.68	36
2546.39	24.4
2547.1	24.4
2547.81	30
2548.52	34.6
2549.23	22.4
2549.94	37.2
2550.65	38
2551.36	23.6
2552.07	16.4
2552.78	24.2
2553.49	46
2554.2	23.4
2554.91	26.2
2555.61	36.6
2556.32	31.8
2557.03	29.8
2557.74	32.6
2558.45	41
2559.15	25.2
2559.86	33.6
2560.57	36.2
2561.27	36.6
2561.98	27.2
2562.69	33.4
2563.39	34.4
2564.1	27.4
2564.81	29
2565.51	42.4
2566.22	37.4
2566.92	25.4
2567.63	24
2568.33	30.4
2569.04	33
2569.74	2
2570.45	30.8
2571.15	42.8
2571.86	33.4
2572.56	25
2573.26	31.6
2573.97	43.8
2574.67	23.8
2575.37	27.8
2576.08	38.2
2576.78	35.6
2577.48	15.6
2578.19	33.6
2578.89	47
2579.59	26.8
2580.29	18.6
2580.99	41
2581.69	17
2582.4	28.8
2583.1	20
2583.8	36.4
2584.5	37
2585.2	20.4
2585.9	23.4
2586.6	41.6
2587.3	21.6
2588	26.8
2588.7	30.6
2589.4	33.2
2590.1	20.8
2590.8	26.4
2591.5	39.6
2592.19	16.8
2592.89	16
2593.59	29.2
2594.29	36.4
2594.99	25.6
2595.68	15
2596.38	44.2
2597.08	25.6
2597.78	26.4
2598.47	21
2599.17	36.6
2599.87	24
2600.56	15.8
2601.26	39.2
2601.96	32.8
2602.65	22.6
2603.35	17.2
2604.04	32.6
2604.74	34.2
2605.43	20.8
2606.13	18.8
2606.82	26.2
2607.52	12.8
2608.21	16.2
2608.91	32.8
2609.6	32.2
2610.29	25.2
2610.99	24.4
2611.68	35.4
2612.37	26
2613.07	13.6
2613.76	25.2
2614.45	36
2615.15	20.2
2615.84	23.2
2616.53	26
2617.22	26
2617.91	10.2
2618.6	17.2
2619.3	33.2
2619.99	19.8
2620.68	15.8
2621.37	22.8
2622.06	34.6
2622.75	20.4
2623.44	17.8
2624.13	11.2
2624.82	31.6
2625.51	19
2626.2	18.6
2626.89	33.2
2627.58	13
2628.27	14
2628.96	27.6
2629.64	34.6
2630.33	17
2631.02	10.8
2631.71	33.2
2632.4	28
2633.08	12.6
2633.77	15.8
2634.46	32.8
2635.15	17.2
2635.83	27.6
2636.52	21.8
2637.21	23.8
2637.89	23
2638.58	21.4
2639.26	27.2
2639.95	25
2640.64	9.8
2641.32	22
2642.01	29.6
2642.69	22.2
2643.38	7.2
2644.06	23
2644.75	16.6
2645.43	15
2646.11	20.4
2646.8	24.4
2647.48	18.8
2648.16	16
2648.85	24
2649.53	30.4
2650.21	17.8
2650.9	12.4
2651.58	20
2652.26	25.2
2652.94	15.6
2653.63	10.6
2654.31	21
2654.99	20.4
2655.67	12.6
2656.35	13
2657.03	17
2657.71	11
2658.39	15.6
2659.08	18
2659.76	22
2660.44	1.6
2661.12	4.2
2661.8	17.6
2662.48	11.2
2663.15	1.8
2663.83	18.8
2664.51	23.2
2665.19	15.4
2665.87	3.4
2666.55	22.4
2667.23	22.4
2667.91	25
2668.58	11.8
2669.26	22.2
2669.94	9.8
2670.62	11.4
2671.29	21
2671.97	21.8
2672.65	4.8
2673.32	16.2
2674	13.6
2674.68	16.6
2675.35	14.4
2676.03	13.4
2676.7	22.4
2677.38	8
2678.06	-2
2678.73	24.2
2679.41	14.8
2680.08	5.6
2680.75	3.2
2681.43	24.6
2682.1	13
2682.78	13.4
2683.45	16.2
2684.12	28.4
2684.8	13.4
2685.47	20.6
2686.14	20.6
2686.82	17.2
2687.49	5
2688.16	9.2
2688.83	17.4
2689.51	6.8
2690.18	9.8
2690.85	22.8
2691.52	7.4
2692.19	4.8
2692.86	3
2693.54	10.8089
2694.21	18.277
2694.88	8.14752
2695.55	3.12225
2696.22	22.6195
2696.89	8.12855
2697.56	8.50168
2698.23	17.5269
2698.9	10.7674
2699.57	15.1524
2700.24	5.37486
2700.91	20.0774
2701.57	18.3076
2702.24	1.01816
2702.91	11.058
2703.58	16.3536
2704.25	7.26246
2704.92	9.74053
2705.58	8.9625
2706.25	8.99246
2706.92	3.78421
2707.58	17.745
2708.25	13.9403
2708.92	12.3971
2709.59	12.5697
2710.25	16.5867
2710.92	16.7585
2711.58	8.41781
2712.25	14.6632
2712.92	18.1114
2713.58	21.75
2714.25	6.69244
2714.91	13.2246
2715.58	17.8353
2716.24	14.5405
2716.91	7.06346
2717.57	15.1572
2718.23	18.02
2718.9	8.8418
2719.56	8.1335
2720.23	21.4961
2720.89	12.4071
2721.55	7.97544
2722.22	4.65357
2722.88	21.4789
2723.54	7.66304
2724.2	8.26019
2724.87	12.3839
2725.53	15.6134
2726.19	15.6133
2726.85	5.86361
2727.51	16.8299
2728.18	13.4591
2728.84	6.36177
2729.5	12.7554
2730.16	13.4613
2730.82	7.17145
2731.48	8.00436
2732.14	14.2348
2732.8	13.1085
2733.46	12.2389
2734.12	11.2661
2734.78	6.28923
2735.44	13.9124
2736.1	15.7847
2736.76	12.8091
2737.42	11.2497
2738.07	11.8712
2738.73	15.2268
2739.39	17.0185
2740.05	13.5866
2740.71	9.77528
2741.37	11.3435
2742.02	20.0885
2742.68	15.5592
2743.34	11.8842
2743.99	16.2655
2744.65	18.5109
2745.31	13.2234
2745.96	11.1166
2746.62	16.3859
2747.28	17.2188
2747.93	8.09962
2748.59	13.7008
2749.24	9.58756
2749.9	18.3156
2750.55	14.1811
2751.21	21.7783
2751.86	20.0747
2752.52	17.3466
2753.17	19.1297
2753.83	14.0103
2754.48	13.8938
2755.14	15.429
2755.79	16.9101
2756.44	20.7963
2757.1	15.3477
2757.75	10.72
2758.4	14.6148
2759.05	17.2667
2759.71	15.2436
2760.36	12.9883
2761.01	14.9904
2761.66	15.9365
2762.32	15.3222
2762.97	11.1076
2763.63	21.8
2764.32	24.2
2765.01	20.6
2765.69	16.6
2766.38	19.4
2767.07	4.8
2767.75	29.8
2768.44	16.6
2769.12	28.2
2769.81	19.6
2770.49	25.2
2771.18	21.6
2771.87	10.8
2772.55	16
2773.24	15.2
2773.92	11
2774.6	15
2775.29	15.6
2775.97	15
2776.66	17.2
2777.34	22.2
2778.03	12
2778.71	23
2779.39	17.8
2780.08	23.8
2780.76	7.6
2781.44	7.4
2782.12	16.4
2782.81	16.8
2783.49	15.2
2784.17	15.4
2784.85	21
2785.54	14
2786.22	16.2
2786.9	8.2
2787.58	18.6
2788.26	15.2
2788.94	14.8
2789.63	15
2790.31	16.8
2790.99	9
2791.67	17.6
2792.35	14.4
2793.03	13.8
2793.71	8
2794.39	13
2795.07	11.2
2795.75	8
2796.43	19
2797.11	11.4
2797.79	10.6
2798.46	22.4
2799.14	12.2
2799.82	12.6
2800.5	11.6
2801.18	7
2801.86	13.4
2802.54	14.8
2803.21	17.2
2803.89	11.2
2804.57	15.2
2805.25	11.8
2805.92	15.8
2806.6	10.2
2807.28	10
2807.95	5.2
2808.63	17.2
2809.31	13.4
2809.98	14.8
2810.66	-0.2
2811.34	5.6
2812.01	7.6
2812.69	11.8
2813.36	6.6
2814.04	7.6
2814.71	17.4
2815.39	5.6
2816.06	2
2816.74	13.8
2817.41	8.4
2818.09	13.6
2818.76	17.8
2819.44	8.6
2820.11	10
2820.78	17.2
2821.46	7.2
2822.13	14
2822.8	3.2
2823.48	7.2
2824.15	6.8
2824.82	8.8
2825.49	2.6
2826.17	1.6
2826.84	1.2
2827.51	13.8
2828.18	13
2828.86	3.6
2829.53	10.8
2830.2	16.4
2830.87	7.6
2831.54	12.6
2832.21	1.6
2832.88	5
2833.55	0.4
2834.22	9.8
2834.9	-6
2835.56	4.6
2836.23	0.4
2836.91	15.6
2837.57	-5.4
2838.24	6.4
2838.91	-2.8
2839.58	-8
2840.25	5.2
2840.92	3.4
2841.59	2.6
2842.26	7.6
2842.93	8.6
2843.6	15.4
2844.26	-1.8
2844.93	2
2845.6	3.2
2846.27	5.2
2846.93	0
2847.6	-3.4
2848.27	7.2
2848.94	11.6
2849.6	8.8
2850.27	3.6
2850.94	1.6
2851.6	-8.2
2852.27	6.4
2852.94	-16.4
2853.6	-4
2854.27	-14.2
2854.93	-1.2
2855.6	-0.4
2856.26	3.4
2856.93	-8.8
2857.59	8.8
2858.26	0.8
2858.92	-2.8
2859.59	-10.8
2860.25	-21
2860.92	-2.6
2861.58	-3.6
2862.24	0.8
2862.91	-7.4
2863.57	-2.2
2864.23	-3
2864.9	-16.4
2865.56	-7.8
2866.22	-3.6
2866.89	-7.2
2867.55	-17
2868.21	-13.8
2868.87	-6
2869.54	-6.8
2870.2	-9.8
2870.86	-9.4
2871.52	-11.2
2872.18	-8.8
2872.84	-1.4
2873.51	5.4
2874.17	0.6
2874.83	-2.6
2875.49	-12.6
2876.15	-10.4
2876.81	-5.8
2877.47	-10.6
2878.13	-3.8
2878.79	-17.4
2879.45	-2
2880.11	-11.2
2880.77	-14.2
2881.43	-7.6
2882.09	-11.4
2882.75	2.6
2883.4	-14
2884.06	-11.8
2884.72	-7.8
2885.38	-8.8
2886.04	-5.6
2886.7	-5.8
2887.35	-10.4
2888.01	-1
2888.67	-15.6
2889.33	-10
2889.98	-10
2890.64	-21
2891.3	-11.4
2891.95	-9.6
2892.61	-3.2
2893.27	-9.8
2893.92	-10.8
2894.58	-12.6
2895.23	-10.6
2895.89	-12
2896.55	-14.6
2897.2	-6.6
2897.86	-11
2898.51	-16.8
2899.17	-14.6
2899.82	-5.2
2900.48	-7.6
2901.13	-20.4
2901.79	-3.4
2902.44	-11.4
2903.09	-30
2903.75	-18
2904.4	-16.4
2905.05	-15.8
2905.71	-12
2906.36	-8.2
2907.01	-8
2907.67	-11.8
2908.32	-16
2908.97	-7.8
2909.63	-18.6
2910.28	-10
2910.93	-15.4
2911.58	-13.6
2912.23	-18.2
2912.88	-12.4
2913.54	-18.4
2914.19	-10.8
2914.84	-13.2
2915.49	-5.8
2916.14	-7.6
2916.79	-12
2917.44	-19.6
2918.09	-18.2
2918.74	-13
2919.39	-11.8
2920.04	-11.4
2920.69	-4.4
2921.34	-15.2
2921.99	-7.4
2922.64	-7
2923.29	-16.6
2923.94	-12.4
2924.59	-11.2
2925.23	-25
2925.88	-10.2
2926.53	-22.2
2927.18	-8.8
2927.83	-16.6
2928.48	-15
2929.12	-16.6
2929.77	-10
2930.42	-7.6
2931.07	-9
2931.71	-15.6
2932.36	-26.4
2933.01	-12.6
2933.65	-10.6
2934.3	-26.6
2934.95	-5.8
2935.59	-11.4
2936.24	-15.2
2936.88	-12.6
2937.53	-9.8
2938.17	-13.6
2938.82	-23.6
2939.46	-26
2940.11	-18.8
2940.75	-24.2
2941.4	-12.6
2942.04	-17.2
2942.69	-16
2943.33	-13.4
2943.98	-13
2944.62	-13.6
2945.26	-9.8
2945.91	-19.2
2946.55	-21.6
2947.19	-17.4
2947.84	-22
2948.48	-15.4
2949.12	-16
2949.76	-13.6
2950.41	-17.4
2951.05	-21.4
2951.69	-14
2952.33	-13.8
2952.98	-15.4
2953.62	-20.8
2954.26	-14.6
2954.9	-21.4
2955.54	-23
2956.18	-23.2
2956.82	-14.2
2957.46	-14.8
2958.1	-10.2
2958.74	-18.4
2959.38	-11.2
2960.02	-20
2960.66	-24.2
2961.3	-9.8
2961.94	-20.8
2962.58	-15.6
2963.22	-14.2
2963.86	-13
2964.5	-11.2
2965.14	-8.8
2965.78	-14.4
2966.42	-21.8
2967.05	-21
2967.69	-32.2
2968.33	-15.4
2968.97	-27
2969.61	-24.4
2970.24	-11.4
2970.88	-15
2971.52	-17.2
2972.15	-15.6
2972.79	-19.2
2973.43	-10
2974.06	-23.6
2974.7	-24
2975.34	-21
2975.97	-17.2
2976.61	-25
2977.24	-17.6
2977.88	-16.6
2978.52	-12.8
2979.15	-25.8
2979.79	-21.2
2980.42	-24.6
2981.06	-19.8
2981.69	-21.2
2982.32	-19.8
2982.96	-24.6
2983.59	-25.4
2984.23	-15.8
2984.86	-28.2
2985.49	-21.8
2986.13	-23.2
2986.76	-22
2987.39	-16.4
2988.03	-22.6
2988.66	-18.4
2989.29	-13.4
2989.93	-21.4
2990.56	-28.8
2991.19	-19.2
2991.82	-27.2
2992.45	-43.4
2993.09	-9.8
2993.72	-25
2994.35	-16.6
2994.98	-22.2
2995.61	-18.4
2996.24	-16.8
2996.87	-25
2997.5	-35.2
2998.14	-14.6
2998.77	-24
2999.4	-27.2
3000.03	-22.2
3000.66	-22.4
3001.29	-21.6
3001.91	-18.2
3002.54	-11.8
3003.17	-18.4
3003.8	-24.2
3004.43	-26.8
3005.06	-24.4
3005.69	-22.4
3006.32	-17.8
3006.95	-25.4
3007.57	-19.6
3008.2	-22.4
3008.83	-21.8
3009.46	-25.6
3010.08	-7.4
3010.71	-20
3011.34	-17.4
3011.97	-23.6
3012.59	-19
3013.22	-18
3013.85	-22.6
3014.47	-29
3015.1	-24.4
3015.72	-23.4
3016.35	-15.4
3016.98	-32.2
3017.6	-19.6
3018.23	-35.4
3018.85	-20.8
3019.48	-24.4
3020.1	-19
3020.73	-22.2
3021.35	-15.8
3021.98	-16.2
3022.6	-12.4
3023.23	-26.6
3023.85	-16.6
3024.47	-32.8
3025.1	-15.6
3025.72	-26.2
3026.34	-14.2
3026.97	-32
3027.59	-20.2
3028.21	-19.6
3028.84	-26
3029.46	-23.6
3030.08	-16
3030.7	-15
3031.32	-31.2
3031.95	-24.4
3032.57	-28.2
3033.19	-22.2
3033.81	-27.8
3034.43	-18.2
3035.05	-17.4
3035.68	-13
3036.3	-22
3036.92	-28.2
3037.54	-25.2
3038.16	-24.2
3038.78	-24.6
3039.4	-29.6
3040.02	-27.8
3040.64	-25.2
3041.26	-31.4
3041.88	-22
3042.5	-24.2
3043.12	-24.2
3043.73	-21.8
3044.35	-16
3044.97	-27.4
3045.59	-22.6
3046.21	-30
3046.83	-29.2
3047.44	-32
3048.06	-23.6
3048.68	-25
3049.3	-22
3049.92	-29.4
3050.53	-25.2
3051.15	-24.6
3051.77	-19.6
3052.38	-25.2
3053	-22.2
3053.62	-23.4
3054.23	-33
3054.85	-20.2
3055.46	-23.2
3056.08	-15.6
3056.7	-28.2
3057.31	-19.8
3057.93	-24.2
3058.54	-22
3059.16	-23.8
3059.77	-20.8
3060.39	-25.2
3061	-26.2
3061.61	-18
3062.23	-20.2
3062.84	-15.6
3063.46	-24.8
3064.07	-16
3064.68	-23.4
3065.3	-39.8
3065.91	-23
3066.52	-20.8
3067.14	-25.2
3067.75	-28.4
3068.36	-20.6
3068.98	-22.2
3069.59	-21
3070.2	-36.4
3070.81	-22
3071.42	-20
3072.04	-21.6
3072.65	-24
3073.26	-35
3073.87	-27.8
3074.48	-25.2
3075.09	-22.6
3075.7	-23.8
3076.31	-25.4
3076.92	-28.6
3077.53	-20
3078.14	-21
3078.75	-29.4
3079.36	-32.8
3079.97	-27.4
3080.58	-29.8
3081.19	-27.2
3081.8	-15.2
3082.41	-22
3083.02	-20.4
3083.63	-35
3084.24	-27.2
3084.84	-25.6
3085.45	-34.2
3086.06	-23
3086.67	-21.2
3087.28	-25.4
3087.88	-31
3088.49	-29.2
3089.1	-29
3089.71	-29
3090.31	-21
3090.92	-30
3091.53	-25
3092.13	-36.6
3092.74	-30.2
3093.34	-33.2
3093.95	-23.6
3094.56	-30.2
3095.16	-30.4
3095.77	-22.8
3096.37	-34.4
3096.98	-26
3097.58	-27
3098.19	-31.6
3098.79	-25.8
3099.4	-25.6
3100	-22.4
3100.61	-32.2
3101.21	-24.2
3101.81	-28.6
3102.42	-26.4
3103.02	-21
3103.63	-21.6
3104.23	-24.4
3104.83	-22
3105.43	-22.2
3106.04	-25.6
3106.64	-21
3107.24	-26.4
3107.85	-18.6
3108.45	-25.4
3109.05	-24.8
3109.65	-22.6
3110.25	-23.2
3110.86	-28.2
3111.46	-29
3112.06	-28.6
3112.66	-27.2
3113.26	-26.6
3113.86	-29.4
3114.46	-30.2
3115.06	-22.6
3115.66	-28
3116.26	-21.6
3116.86	-29.4
3117.46	-27.8
3118.06	-28.8
3118.66	-32.8
3119.26	-27.2
3119.86	-25.4
3120.46	-29.6
3121.06	-33.2
3121.66	-32
3122.26	-31
3122.85	-23.2
3123.45	-22.4
3124.05	-28.6
3124.65	-31.6
3125.25	-28.6
3125.84	-29.8
3126.44	-16.4
3127.04	-33.6
3127.64	-25.6
3128.23	-25.8
3128.83	-27.2
3129.43	-36.2
3130.02	-24.8
3130.62	-23
3131.22	-29.4
3131.81	-32.4
3132.41	-31.8
3133	-29.8
3133.6	-27.4
3134.19	-21.4
3134.79	-32.8
3135.39	-24
3135.98	-37.4
3136.58	-19.6
3137.17	-29.4
3137.76	-24.2
3138.36	-24
3138.95	-33.6
3139.55	-22
3140.14	-23
3140.73	-34.2
3141.33	-36.8
3141.92	-37.2
3142.51	-26.6
3143.11	-22.6
3143.7	-29.4
3144.29	-26.6
3144.89	-27.6
3145.48	-30.2
3146.07	-17
3146.66	-33.4
3147.26	-25.4
3147.85	-24.6
3148.44	-26.2
3149.03	-25.6
3149.62	-27.6
3150.21	-20
3150.8	-30.4
3151.39	-23.8
3151.99	-27.8
3152.58	-25.6
3153.17	-35.2
3153.76	-22.2
3154.35	-22.8
3154.94	-31.4
3155.53	-27.8
3156.12	-27.4
3156.71	-29.6
3157.29	-38
3157.88	-22.6
3158.47	-36
3159.06	-26.4
3159.65	-35
3160.24	-29.2
3160.83	-28
3161.42	-27.4
3162	-20.4
3162.59	-31
3163.18	-31.4
3163.77	-28.4
3164.35	-34.2
3164.94	-34
3165.53	-17.2
3166.12	-31
3166.7	-19
3167.29	-28.2
3167.88	-25.6
3168.46	-21.4
3169.05	-27
3169.64	-23.4
3170.22	-28.8
3170.81	-30.4
3171.39	-28.6
3171.98	-32.8
3172.56	-27.8
3173.15	-34.2
3173.73	-22.8
3174.32	-27
3174.9	-31.4
3175.49	-27
3176.07	-31.8
3176.65	-27.8
3177.24	-26.6
3177.82	-24.8
3178.41	-20.6
3178.99	-36.8
3179.57	-22
3180.16	-34.6
3180.74	-30.8
3181.32	-29.2
3181.91	-26.2
3182.49	-33.8
3183.07	-32.8
3183.65	-32.8
3184.23	-34
3184.82	-21.8
3185.4	-29.8
3185.98	-25.4
3186.56	-21.4
3187.14	-23.4
3187.72	-30.6
3188.3	-27.6
3188.89	-34.8
3189.47	-19
3190.05	-29.2
3190.63	-28.8
3191.21	-33.8
3191.79	-42.8
3192.37	-28
3192.95	-29.8
3193.53	-37.4
3194.11	-26
3194.69	-27.4
3195.26	-33.6
3195.84	-30.4
3196.42	-31.6
3197	-32.8
3197.58	-33.8
3198.16	-27.6
3198.74	-32.6
3199.31	-24.6
3199.89	-35
