100.582	1999.5
101.867	1951
103.152	1991
104.437	2006.5
105.721	2019
107.004	1977.5
108.287	2020
109.571	2020.5
110.853	2018
112.136	2033
113.418	2070.5
114.7	2035
115.981	2074
117.262	2024.5
118.543	2032
119.823	1987
121.103	1992
122.383	2028
123.663	1969
124.942	1939
126.221	1990
127.499	1990
128.777	1929
130.056	1911.5
131.333	1927
132.61	1918
133.887	1907
135.163	1908.5
136.439	1882.5
137.715	1922.5
138.992	1906.5
140.267	1926
141.541	1903
142.816	1854
144.09	1810
145.364	1818
146.637	1812
147.911	1808
149.184	1734.5
150.457	1817
151.729	1761
153.001	1722
154.273	1687
155.544	1752
156.815	1687
158.086	1693.5
159.356	1716
160.626	1678
161.896	1697.5
163.165	1687.5
164.434	1627.5
165.703	1664.5
166.971	1648
168.24	1646.5
169.507	1644.5
170.774	1609.5
172.042	1611
173.309	1594
174.575	1571
175.841	1571
177.107	1538.5
178.373	1602
179.637	1518
180.902	1520.5
182.167	1559
183.431	1522
184.695	1494
185.958	1455.5
187.222	1509
188.485	1444
189.747	1470
191.009	1456.5
192.272	1443.5
193.534	1425
194.795	1431.5
196.055	1481
197.316	1433
198.577	1427.5
199.837	1434.5
201.096	1406.5
202.356	1472.5
203.615	1441
204.873	1446.5
206.132	1406
207.39	1426
208.648	1469
209.905	1432
211.162	1429
212.419	1407.5
213.675	1415.5
214.932	1450
216.187	1423
217.443	1379.5
218.697	1356.5
219.953	1370.5
221.207	1320
222.462	1331
223.715	1378.5
224.969	1359
226.222	1333
227.475	1345.5
228.727	1332.5
229.98	1294
231.232	1302.5
232.483	1362
233.734	1345.5
234.986	1340
236.236	1362.5
237.486	1309
238.737	1320
239.986	1325.5
241.235	1379.5
242.484	1358
243.733	1365.5
244.981	1370
246.229	1406.5
247.477	1438.5
248.725	1434.5
249.971	1437.5
251.219	1484
252.465	1400
253.711	1439
254.957	1358
256.203	1311.5
257.448	1324
258.693	1319
259.937	1380.5
261.181	1302.5
262.425	1281.5
263.669	1272.5
264.912	1292.5
266.155	1297
267.398	1279
268.64	1246.5
269.881	1271
271.123	1279
272.364	1247.5
273.605	1229.5
274.846	1251
276.086	1270.5
277.326	1256
278.566	1236.5
279.806	1262.5
281.045	1250.5
282.283	1253
283.522	1237.5
284.76	1226
285.998	1222
287.235	1214
288.473	1221.5
289.71	1208.5
290.946	1220
292.182	1214
293.418	1188.5
294.654	1185.5
295.888	1180
297.123	1225
298.358	1211
299.592	1180
300.826	1218.5
302.06	1196
303.293	1190
304.526	1176.5
305.759	1197.5
306.991	1183
308.223	1173.5
309.455	1183.5
310.687	1167
311.917	1174.5
313.148	1132
314.379	1104.5
315.609	1123.5
316.839	1118.5
318.068	1117
319.297	1163.5
320.526	1145
321.754	1105.5
322.982	1121
324.21	1140.5
325.438	1100.5
326.665	1115
327.892	1110.5
329.118	1086
330.345	1105
331.571	1112
332.797	1110.5
334.022	1094
335.247	1073
336.471	1084
337.696	1071
338.92	1101
340.144	1050.5
341.367	1071.5
342.591	1069
343.813	1057.5
345.036	1067.5
346.257	1053
347.48	1048.5
348.701	1064.5
349.922	1049.5
351.143	1036.5
352.363	1026
353.583	1037
354.803	1042
356.023	1040.5
357.243	1049
358.462	1036.5
359.68	1014.5
360.899	1002
362.117	994
363.334	1030.5
364.551	1026
365.769	1007
366.986	996.5
368.202	982.5
369.418	995
370.633	980
371.849	1013
373.065	999
374.279	982
375.494	972
376.708	999.5
377.921	962
379.136	957.5
380.349	980.5
381.562	970.5
382.774	940
383.987	899
385.198	936.5
386.41	976
387.621	944
388.832	935.5
390.043	971
391.253	919
392.463	958
393.674	942
394.883	942.5
396.092	957
397.301	945.5
398.509	936.5
399.717	959
400.925	935
402.133	968
403.34	956.5
404.547	959
405.753	898.5
406.96	939
408.165	918.5
409.371	941
410.576	938.5
411.781	937
412.986	935.5
414.191	906
415.394	927
416.598	894
417.802	926
419.005	932.5
420.208	958
421.41	955.5
422.613	904
423.815	895.5
425.016	928
426.217	877
427.418	879.5
428.619	939.5
429.818	933.5
431.019	917
432.218	919.5
433.418	925.5
434.617	919.5
435.815	918.5
437.014	931.5
438.212	948.5
439.41	911.5
440.607	904.5
441.805	923
443.001	917.5
444.198	939
445.394	885.5
446.59	903
447.785	870.5
448.98	865.5
450.175	887.5
451.37	915.5
452.564	900
453.758	844
454.952	887.5
456.145	910.5
457.339	864.5
458.531	880
459.724	893
460.916	876.5
462.107	848
463.299	859
464.49	915
465.681	875
466.871	862
468.062	893.5
469.252	886
470.441	859.5
471.631	880.5
472.819	887.5
474.008	867.5
475.196	880
476.385	865.5
477.572	913
478.76	861.5
479.946	887.5
481.133	891
482.32	868.5
483.506	840.5
484.692	853.5
485.877	860.5
487.063	862
488.247	885
489.432	875
490.616	885.5
491.8	886
492.984	852
494.167	886.5
495.35	852
496.533	828.5
497.715	855
498.897	845.5
500.079	837
501.26	812.5
502.441	799
503.622	826.5
504.803	809.5
505.983	826
507.163	843
508.342	810
509.522	793
510.701	809.5
511.88	808
513.058	802.5
514.236	776.5
515.413	772.5
516.591	809.5
517.768	786
518.945	778
520.121	796
521.297	779
522.473	779.5
523.648	775.5
524.823	790.5
525.998	776.5
527.173	741.5
528.348	793.5
529.522	800.5
530.694	763
531.868	786
533.041	789.5
534.214	800.5
535.386	742
536.558	768.5
537.731	785
538.902	759.5
540.073	781
541.244	766.5
542.414	793
543.585	765.5
544.754	741.5
545.924	758.5
547.094	754
548.262	790.5
549.431	772.5
550.6	781.5
551.767	736
552.935	724
554.103	750
555.27	754
556.436	776.5
557.603	739.5
558.769	761
559.935	775.5
561.1	753
562.266	730
563.431	733.5
564.595	716.5
565.759	717.5
566.924	745.5
568.087	764.5
569.25	704.5
570.414	745
571.576	751.5
572.739	729.5
573.901	716
575.062	704
576.224	729.5
577.385	711.5
578.546	702.5
579.707	724.5
580.867	733
582.028	742.5
583.187	732.5
584.347	728
585.505	716
586.664	700.5
587.822	714
588.98	751
590.138	719.5
591.296	710.5
592.453	734
593.61	738
594.767	716
595.922	708.5
597.079	765
598.234	742
599.39	722
600.544	731.5
601.699	759
602.854	704.5
604.008	732.5
605.161	713
606.315	728.5
607.468	688
608.621	707
609.774	738
610.926	725.5
612.078	714
613.229	711
614.381	692
615.532	706
616.682	680.5
617.833	732
618.983	721.5
620.133	687.5
621.282	680.5
622.431	716
623.58	707
624.729	714.5
625.877	696.5
627.025	730
628.172	694.5
629.32	685
630.467	705
631.614	712
632.76	672.5
633.906	711
635.052	740.5
636.197	709.5
637.343	688
638.488	688
639.632	682.5
640.776	669
641.92	695.5
643.064	721
644.207	688.5
645.35	675
646.493	666.5
647.635	698.5
648.777	695.5
649.919	677
651.06	689.5
652.202	688
653.342	682
654.483	701.5
655.624	712
656.764	670.5
657.903	659.5
659.043	679
660.181	682.5
661.32	688
662.459	646
663.596	665.5
664.735	691
665.872	690
667.009	686.5
668.146	653.5
669.282	639.5
670.419	642.5
671.555	659.5
672.69	679
673.826	664.5
674.96	666.5
676.096	654
677.23	668.5
678.364	680
679.498	654
680.631	691
681.765	686.5
682.897	680
684.03	664
685.163	668
686.294	652.5
687.426	676
688.557	651
689.689	636
690.819	683
691.949	649
693.079	652.5
694.21	658.5
695.339	664
696.468	674
697.597	655.5
698.725	673
699.854	657
700.982	694
702.11	674
703.237	716.5
704.364	669
705.491	679.5
706.617	642.5
707.744	655
708.87	676
709.995	684.5
711.12	628.5
712.245	679
713.37	660
714.495	668.5
715.618	666
716.742	643
717.865	680.5
718.989	674.5
720.112	654
721.234	636.5
722.356	688
723.478	654
724.6	652
725.721	666.5
726.842	636
727.962	643.5
729.083	660
730.203	671.5
731.323	621
732.442	641
733.562	652.5
734.681	649
735.799	638.5
736.917	658
738.036	619.5
739.153	631
740.27	626
741.387	644
742.505	651
743.62	617.5
744.736	626
745.853	651
746.968	663.5
748.083	647
749.199	629.5
750.313	643.5
751.427	647
752.541	620.5
753.655	646.5
754.768	661.5
755.882	625.5
756.994	632
758.107	647
759.219	623
760.331	635.5
761.443	636.5
762.554	673.5
763.665	620.5
764.776	617
765.885	658.5
766.996	645
768.106	653.5
769.215	675
770.324	673
771.434	641
772.542	604
773.65	619.5
774.758	655
775.865	631
776.973	622
778.081	655
779.187	645.5
780.293	652
781.399	615.5
782.506	624.5
783.611	617.5
784.716	632.5
785.821	635.5
786.926	651.5
788.03	613
789.134	634.5
790.238	646
791.341	614.5
792.444	606
793.547	608.5
794.65	615
795.752	627.5
796.854	610
797.956	641.5
799.057	621
800.158	598
801.259	584.5
802.359	637
803.459	620.5
804.559	613
805.659	612.5
806.758	625
807.857	602.5
808.955	600
810.053	615
811.152	616
812.25	605.5
813.347	591
814.444	602.5
815.541	621.5
816.638	631
817.733	607.5
818.83	618.5
819.925	599
821.02	604.5
822.115	617.5
823.21	625.5
824.305	577
825.398	604
826.492	603
827.586	643.5
828.679	594.5
829.772	615.5
830.865	609.5
831.957	616.5
833.049	583.5
834.141	611
835.232	620.5
836.323	578.5
837.414	597
838.505	628.5
839.595	596
840.685	589
841.774	610
842.864	629
843.952	603
845.041	581
846.129	614
847.218	603.5
848.306	599
849.393	594.5
850.48	584.5
851.567	594.5
852.654	587.5
853.74	610.5
854.826	580
855.912	603
856.997	584
858.082	595.5
859.167	592
860.252	562
861.336	619
862.42	604
863.504	610.5
864.587	577
865.67	579.5
866.753	582
867.835	591
868.917	590
869.999	604
871.081	624.5
872.162	566.5
873.243	569.5
874.323	597
875.404	578
876.484	586
877.564	613
878.643	576.5
879.722	571.5
880.802	566.5
881.88	599.5
882.958	584
884.036	555
885.113	571.5
886.191	599
887.268	561.5
888.344	573
889.421	593.5
890.498	593.5
891.573	569
892.649	527.5
893.724	579
894.799	569.5
895.874	542.5
896.948	563.5
898.022	557.5
899.096	573.5
900.17	578.5
901.243	563
902.315	573.5
903.389	552.5
904.461	568.5
905.533	576
906.605	567.5
907.676	559.5
908.747	554
909.818	580
910.888	568.5
911.958	535.5
913.028	569.5
914.098	551
915.167	573
916.237	573
917.306	574.5
918.374	562.5
919.442	562
920.51	550.5
921.577	573
922.644	571
923.711	553
924.778	554.5
925.845	547
926.911	545
927.977	535.5
929.042	584.5
930.107	549
931.173	541
932.237	546
933.301	551.5
934.365	542
935.429	533.5
936.492	533.5
937.556	530.5
938.619	548.5
939.681	523.5
940.743	556.5
941.805	539.5
942.867	532
943.928	529
944.989	542.5
946.05	536
947.11	541.5
948.17	546.5
949.23	551
950.29	549
951.349	544
952.409	554.5
953.467	517
954.526	536.5
955.584	545.5
956.641	518.5
957.699	528
958.756	532.5
959.813	521
960.869	529.5
961.926	530
962.982	544
964.038	553
965.094	513
966.149	516.5
967.204	546.5
968.258	531
969.312	503
970.366	513.5
971.42	543
972.473	516
973.527	512.5
974.58	535.5
975.631	531.5
976.684	527
977.736	511.5
978.787	545
979.839	545.5
980.89	502.5
981.94	512
982.991	544.5
984.041	529.5
985.091	505.5
986.141	534
987.19	543
988.239	504
989.288	524.5
990.336	538.5
991.384	533
992.432	499.5
993.48	523
994.527	531
995.574	546
996.62	521
997.666	541.5
998.713	516.5
999.759	538.5
1000.8	510
1001.85	542.5
1002.89	521.5
1003.94	525
1004.98	542
1006.03	533
1007.07	515
1008.11	516.5
1009.16	522.5
1010.2	510
1011.24	523.5
1012.29	518.5
1013.33	528
1014.37	538
1015.41	514
1016.45	529.5
1017.49	519
1018.53	483.5
1019.57	497
1020.61	528.5
1021.65	522.5
1022.69	529.5
1023.73	517.5
1024.77	536
1025.81	528
1026.85	514
1027.88	494.5
1028.92	516.5
1029.96	501
1031	494.5
1032.03	481.5
1033.07	504
1034.1	507
1035.14	484
1036.18	508
1037.21	505.5
1038.25	497.5
1039.28	510.5
1040.32	522
1041.35	478.5
1042.38	503.5
1043.42	511.5
1044.45	527
1045.48	487.5
1046.52	470
1047.55	484.5
1048.58	506.5
1049.61	454.5
1050.64	482.5
1051.67	507.5
1052.71	492
1053.74	482
1054.77	512
1055.8	494
1056.83	469.5
1057.85	499.5
1058.88	488
1059.91	494.5
1060.94	497.5
1061.97	469.5
1063	488.5
1064.03	488
1065.05	484
1066.08	504.5
1067.11	531.5
1068.13	497
1069.16	496.5
1070.19	505.5
1071.21	488
1072.24	487.5
1073.26	518
1074.29	488
1075.31	461.5
1076.34	460.5
1077.36	508.5
1078.38	489
1079.41	481.5
1080.43	482.5
1081.45	495
1082.47	499
1083.5	443
1084.52	495.5
1085.54	486
1086.56	470.5
1087.58	474.5
1088.6	522
1089.62	470.5
1090.64	472
1091.66	467
1092.68	485
1093.7	484
1094.72	485
1095.74	489.5
1096.76	483
1097.78	475
1098.79	478.5
1099.81	495.5
1100.83	495.5
1101.85	495
1102.86	482
1103.88	495.5
1104.9	470.5
1105.91	468.5
1106.93	496.5
1107.94	468
1108.96	474.5
1109.97	501
1110.99	491
1112	473
1113.01	465.5
1114.03	484
1115.04	470.5
1116.05	465
1117.07	425
1118.08	475.5
1119.09	486
1120.1	459
1121.11	479
1122.13	477.5
1123.14	477.5
1124.15	447.5
1125.16	471.5
1126.17	454.5
1127.18	463.5
1128.19	458.5
1129.2	465.5
1130.2	463.5
1131.21	431
1132.22	457.5
1133.23	480
1134.24	452.5
1135.25	448.5
1136.25	466
1137.26	450.5
1138.27	469.5
1139.27	452
1140.28	463
1141.28	446
1142.29	435
1143.29	456.5
1144.3	474.5
1145.3	466.5
1146.31	434.5
1147.31	458
1148.32	445
1149.32	473.471
1150.32	453.573
1151.33	472.418
1152.33	462.982
1153.33	441.015
1154.33	443.206
1155.33	444.669
1156.34	432.527
1157.34	444.415
1158.34	449.12
1159.34	448.046
1160.34	442.355
1161.34	454.159
1162.34	437.079
1163.34	458.921
1164.34	438.09
1165.34	454.842
1166.33	424.628
1167.33	452.458
1168.33	427.781
1169.33	445.243
1170.33	447.242
1171.32	431.299
1172.32	450.343
1173.32	449.642
1174.31	434.1
1175.31	440.194
1176.31	445.469
1177.3	455.205
1178.3	425.791
1179.29	435.305
1180.29	442.422
1181.28	436.426
1182.27	429.545
1183.27	429.192
1184.26	450.582
1185.25	428.333
1186.25	425.57
1187.24	443.03
1188.23	436.532
1189.22	423.31
1190.22	421.609
1191.21	432.113
1192.2	430.473
1193.19	426.117
1194.18	433.448
1195.17	420.506
1196.16	407.279
1197.15	398.785
1198.14	422.499
1199.13	417.554
1200.12	409.109
1201.11	411.539
1202.09	409.014
1203.08	426.204
1204.07	413.576
1205.06	412.22
1206.04	407.022
1207.03	407.276
1208.02	394.794
1209	408.37
1209.99	409.734
1210.98	387.543
1211.96	423.065
1212.95	407.744
1213.93	404.76
1214.92	405.974
1215.9	427.277
1216.89	413.939
1217.87	407.82
1218.85	396.871
1219.84	400.353
1220.82	398.864
1221.8	392.13
1222.78	408.679
1223.77	414.022
1224.75	421.155
1225.73	396.971
1226.71	399.81
1227.69	396.572
1228.67	386.929
1229.65	382.501
1230.63	383.985
1231.61	398.265
1232.59	390.937
1233.57	388.589
1234.55	396.771
1235.53	387.347
1236.51	396.883
1237.49	396.291
1238.46	392.915
1239.44	388.529
1240.42	392.5
1241.4	401.82
1242.37	374.383
1243.35	377.981
1244.32	387.782
1245.3	392.248
1246.28	397.71
1247.25	393.303
1248.23	390.42
1249.2	388.764
1250.18	398.704
1251.15	386.817
1252.12	359.858
1252.72	366
1253.73	357.5
1254.74	391.5
1255.75	389.5
1256.75	393.5
1257.76	391
1258.77	391.5
1259.78	383.5
1260.79	380.5
1261.79	340.5
1262.8	365
1263.81	372
1264.81	358.5
1265.82	372.5
1266.82	383
1267.83	376.5
1268.83	344
1269.84	371.5
1270.84	369
1271.85	349.5
1272.85	366
1273.86	402
1274.86	385
1275.86	382.5
1276.87	376
1277.87	353
1278.87	374
1279.88	368.5
1280.88	378
1281.88	381
1282.88	393
1283.88	368.5
1284.88	360
1285.88	362
1286.89	354
1287.89	341.5
1288.89	373
1289.89	378
1290.89	353.5
1291.89	356
1292.88	354
1293.88	364
1294.88	377
1295.88	357
1296.88	356.5
1297.88	367.5
1298.88	365.5
1299.87	350.5
1300.87	356.5
1301.87	356
1302.86	359.5
1303.86	358
1304.86	344
1305.85	354
1306.85	356
1307.85	346.5
1308.84	352
1309.84	371
1310.83	359
1311.83	352
1312.82	349
1313.81	353.5
1314.81	353.5
1315.8	359.5
1316.8	371
1317.79	331
1318.78	343
1319.77	360.5
1320.77	357.5
1321.76	339
1322.75	358
1323.74	354.5
1324.73	342
1325.72	340.5
1326.72	367
1327.71	362.5
1328.7	368.5
1329.69	343.5
1330.68	351
1331.67	373.5
1332.66	355
1333.65	374
1334.63	362.5
1335.62	342
1336.61	337.5
1337.6	347
1338.59	365.5
1339.58	321
1340.56	333
1341.55	369.5
1342.54	353
1343.53	353.5
1344.51	351.5
1345.5	350
1346.48	327
1347.47	329.5
1348.45	341.5
1349.44	359
1350.43	334
1351.41	358.5
1352.4	337.5
1353.38	349.5
1354.36	326.5
1355.35	348
1356.33	353
1357.31	309
1358.3	330.5
1359.28	326.5
1360.26	351
1361.25	342
1362.23	360.5
1363.21	339
1364.19	311
1365.17	339.5
1366.15	326
1367.14	323
1368.12	290.5
1369.1	327
1370.08	323
1371.06	344.5
1372.04	332
1373.02	325
1373.99	326.5
1374.97	335
1375.95	317
1376.93	333.5
1377.91	285
1378.89	311
1379.86	318.5
1380.84	323
1381.82	317
1382.8	322
1383.77	324.5
1384.75	323
1385.73	326.5
1386.7	305
1387.68	327
1388.65	329
1389.63	327
1390.6	307
1391.58	318.5
1392.55	313
1393.53	307
1394.5	316.5
1395.48	286
1396.45	320
1397.42	304.5
1398.4	325.5
1399.37	331.5
1400.34	319.5
1401.31	303
1402.29	306
1403.26	313
1404.23	302
1405.2	317.5
1406.17	309
1407.14	307
1408.11	319.5
1409.08	310.5
1410.05	304.5
1411.02	320
1411.99	307.5
1412.96	292.5
1413.93	301
1414.9	301
1415.87	298
1416.84	299.5
1417.81	292
1418.78	300.5
1419.74	301
1420.71	311
1421.68	310.5
1422.65	296.5
1423.61	315
1424.58	316.5
1425.55	307
1426.51	309
1427.48	316
1428.44	303
1429.41	303
1430.37	296.5
1431.34	318
1432.3	283
1433.27	289
1434.23	293
1435.2	299
1436.16	290
1437.12	291.5
1438.09	294
1439.05	298
1440.01	279
1440.97	278.5
1441.94	312.5
1442.9	303
1443.86	281
1444.82	291
1445.78	310
1446.74	283
1447.7	280.5
1448.67	285
1449.63	298
1450.59	270
1451.55	287.5
1452.5	280
1453.46	283
1454.42	288
1455.38	292
1456.34	274
1457.3	280.5
1458.26	279.5
1459.21	290
1460.17	286
1461.13	269
1462.09	293
1463.04	281
1464	291
1464.96	273.5
1465.91	281
1466.87	262
1467.82	286.5
1468.78	293.5
1469.73	274
1470.69	275
1471.64	277
1472.6	285.5
1473.55	282.5
1474.51	281
1475.46	272.5
1476.41	277.5
1477.37	281
1478.32	269.5
1479.27	275.5
1480.23	266
1481.18	266.5
1482.13	261.5
1483.08	273.5
1484.03	280
1484.98	253
1485.94	282.5
1486.89	276
1487.84	270
1488.79	277.5
1489.74	288
1490.69	263
1491.64	262
1492.59	278
1493.54	277.5
1494.48	282
1495.43	271
1496.38	280.5
1497.33	298.5
1498.28	264
1499.23	279
1500.17	287
1501.12	283
1502.07	294
1503.01	271.5
1503.96	281
1504.91	267
1505.85	259
1506.8	254.5
1507.74	267
1508.69	260
1509.64	278.5
1510.58	269
1511.52	282
1512.47	272.5
1513.41	263
1514.36	260
1515.3	251
1516.24	261
1517.19	252.5
1518.13	260.5
1519.07	260
1520.01	268.5
1520.96	273
1521.9	260
1522.84	266
1523.78	274.5
1524.72	265
1525.66	286
1526.6	246
1527.55	255
1528.49	231
1529.43	256
1530.37	253
1531.3	252
1532.24	249
1533.18	245
1534.12	245
1535.06	264.5
1536	241
1536.94	247
1537.88	246.5
1538.81	248
1539.75	248
1540.69	248.5
1541.62	239.5
1542.56	235
1543.5	235.5
1544.43	262.5
1545.37	254
1546.3	265.5
1547.24	241
1548.18	238.5
1549.11	266
1550.05	253
1550.98	237.5
1551.91	254
1552.85	272
1553.78	257
1554.72	236.5
1555.65	253
1556.58	221
1557.51	245
1558.45	244
1559.38	234
1560.31	251
1561.24	249.5
1562.17	261
1563.11	244
1564.04	238
1564.97	237
1565.9	275.5
1566.83	253.5
1567.76	228
1568.69	234
1569.62	246
1570.55	232.5
1571.48	242.5
1572.41	226
1573.34	240
1574.26	215
1575.19	227
1576.12	240
1577.05	241
1577.98	238
1578.9	241
1579.83	239
1580.76	231
1581.68	248.5
1582.61	239
1583.54	220
1584.46	240.5
1585.39	226
1586.31	251
1587.24	244.5
1588.16	248
1589.09	222
1590.01	246.5
1590.94	244.5
1591.86	243.5
1592.78	239
1593.71	210
1594.63	229
1595.55	242
1596.48	265
1597.4	243.5
1598.32	227.5
1599.24	222.5
1600.17	234
1601.09	240
1602.01	227.5
1602.93	238.5
1603.85	216
1604.77	223
1605.69	212
1606.61	234
1607.53	231
1608.45	198.5
1609.37	231
1610.29	233
1611.21	222.5
1612.13	210.5
1613.05	235
1613.96	223
1614.88	218.5
1615.8	232
1616.72	228.5
1617.63	231
1618.55	228.5
1619.47	222
1620.38	200
1621.3	221
1622.22	202.5
1623.13	235
1624.05	207
1624.96	230.5
1625.88	220.5
1626.79	193
1627.71	217
1628.62	209.5
1629.54	214
1630.45	214
1631.37	220.5
1632.28	212
1633.19	200
1634.1	203
1635.02	208.5
1635.93	230
1636.84	226.5
1637.75	184
1638.67	203.5
1639.58	231
1640.49	194.5
1641.4	200
1642.31	223.5
1643.22	221
1644.13	228.5
1645.04	221
1645.95	205
1646.86	217
1647.77	210
1648.68	202
1649.59	199.5
1650.5	212
1651.41	212.5
1652.31	206.5
1653.22	193
1654.13	210
1655.04	190.5
1655.95	207.5
1656.85	216
1657.76	208
1658.67	197.5
1659.57	206
1660.48	219
1661.38	210
1662.29	200.5
1663.2	182
1664.1	213
1665.01	199.5
1665.91	215
1666.81	216
1667.72	214.5
1668.62	191.5
1669.53	207.5
1670.43	194.5
1671.33	197
1672.24	219.5
1673.14	210.5
1674.04	210
1674.94	204.5
1675.85	208
1676.75	213
1677.65	187
1678.55	187
1679.45	201
1680.35	211
1681.25	211.5
1682.15	216
1683.05	206
1683.95	181.5
1684.85	192
1685.75	190
1686.65	207.5
1687.55	207
1688.45	192
1689.35	223
1690.25	187
1691.15	206
1692.04	196
1692.94	209
1693.84	187
1694.74	201
1695.63	216.5
1696.53	163
1697.43	206
1698.32	200
1699.22	187
1700.11	193.5
1701.01	189
1701.9	190.5
1702.8	197
1703.69	163
1704.59	201.5
1705.48	200.5
1706.38	197
1707.27	200.5
1708.16	187
1709.06	176
1709.95	191
1710.84	185
1711.74	195
1712.63	176
1713.52	190
1714.41	188
1715.3	192
1716.2	175
1717.09	196.5
1717.98	195
1718.87	186.5
1719.76	198
1720.65	192.5
1721.54	204
1722.43	178
1723.32	155
1724.21	176
1725.1	183.5
1725.99	163
1726.88	192.5
1727.76	181
1728.65	180
1729.54	192.5
1730.43	169
1731.31	188
1732.2	196
1733.09	168
1733.98	172.5
1734.86	186
1735.75	194
1736.63	179.5
1737.52	190
1738.41	191
1739.29	176
1740.18	183
1741.06	198.5
1741.95	204
1742.83	167
1743.72	191
1744.6	194
1745.48	175
1746.37	183.5
1747.25	185.5
1748.13	184
1749.02	167.5
1749.9	183
1750.78	177.5
1751.66	185
1752.54	174
1753.43	183.75
1754.31	188.5
1755.19	181
1756.07	176
1756.95	195.5
1757.83	178
1758.71	167
1759.59	175
1760.47	156.5
1761.35	159
1762.23	157
1763.11	163.5
1763.99	174.5
1764.87	178
1765.74	176
1766.62	190
1767.5	168
1768.38	176
1769.25	163
1770.13	178.5
1771.01	146
1771.89	158
1772.76	155
1773.64	174.5
1774.51	168
1775.39	158.5
1776.27	164
1777.14	172
1778.02	159
1778.89	181
1779.76	182
1780.64	170.5
1781.51	148
1782.39	169
1783.26	147
1784.13	161.5
1785.01	154
1785.88	160
1786.75	148
1787.63	161
1788.5	154.5
1789.37	165
1790.24	132
1791.11	161.5
1791.98	158.5
1792.86	155.5
1793.73	139
1794.6	146.5
1795.47	159.5
1796.34	153
1797.21	171.5
1798.08	142.5
1798.95	175
1799.82	156
1800.68	156
1801.55	159.5
1802.42	125
1803.29	146
1804.16	150
1805.03	136.5
1805.89	138
1806.76	146
1807.63	140
1808.49	159.5
1809.36	156
1810.23	150
1811.09	167.5
1811.96	156.5
1812.83	152
1813.69	161.5
1814.56	150
1815.42	145
1816.29	154
1817.15	152
1818.02	156.5
1818.88	161.5
1819.74	160
1820.61	147
1821.47	156.5
1822.33	145
1823.2	167
1824.06	159
1824.92	123
1825.78	148.5
1826.65	142
1827.51	157
1828.37	145
1829.23	157
1830.09	156
1830.95	145
1831.81	146
1832.67	150.5
1833.53	146
1834.39	138
1835.25	156.5
1836.11	149
1836.97	137
1837.83	156.5
1838.69	133.5
1839.55	138
1840.41	128
1841.26	143
1842.12	156
1842.98	160.5
1843.84	141
1844.69	149.5
1845.55	155.5
1846.41	169
1847.26	134
1848.12	146
1848.98	137.5
1849.83	138.5
1850.69	146
1851.54	143
1852.4	141
1853.25	131
1854.11	149
1854.96	145
1855.82	149
1856.67	142
1857.52	148
1858.38	152.5
1859.23	120
1860.08	122
1860.93	147
1861.79	130
1862.64	140
1863.49	146.5
1864.34	138
1865.19	151
1866.05	137
1866.9	132
1867.75	140
1868.6	128.5
1869.45	149
1870.3	134
1871.15	152.5
1872	142
1872.85	142
1873.7	133
1874.55	149.5
1875.4	150
1876.24	135.5
1877.09	153.5
1877.94	121
1878.79	136
1879.64	143
1880.48	129
1881.33	123
1882.18	126.5
1883.02	147.5
1883.87	140
1884.72	117
1885.56	136
1886.41	128
1887.25	128
1888.1	123
1888.94	145.5
1889.79	128
1890.63	132
1891.48	145.5
1892.32	113
1893.17	141
1894.01	128
1894.85	118
1895.7	132.5
1896.54	128
1897.38	125.5
1898.23	135.5
1899.07	131
1899.91	131.5
1900.75	132
1901.59	118.5
1902.44	134
1903.28	101
1904.12	134.5
1904.96	113
1905.8	113
1906.64	130
1907.48	124
1908.32	134
1909.16	135
1910	130
1910.84	130
1911.68	120
1912.51	123.5
1913.35	113
1914.19	107
1915.03	127.5
1915.87	130.5
1916.7	114
1917.54	124
1918.38	123
1919.21	120.5
1920.05	114
1920.89	107
1921.72	112
1922.56	129
1923.4	118
1924.23	113.5
1925.07	122
1925.9	131
1926.74	105
1927.57	125
1928.41	119.5
1929.24	122
1930.07	104
1930.91	125.5
1931.74	106
1932.57	119.5
1933.41	113
1934.24	116
1935.07	118
1935.9	124
1936.74	124.5
1937.57	112
1938.4	126
1939.23	101
1940.06	128.5
1940.89	107
1941.72	125
1942.55	119.5
1943.38	113.5
1944.21	121
1945.04	93
1945.87	105.5
1946.7	105.5
1947.53	116
1948.36	114
1949.19	109
1950.02	108.5
1950.84	123
1951.67	101.5
1952.5	112
1953.33	117
1954.15	102
1954.98	106.5
1955.81	106.5
1956.64	114
1957.46	112
1958.29	90.5
1959.11	97
1959.94	100
1960.76	98
1961.59	116
1962.41	104
1963.24	114
1964.06	100
1964.89	104
1965.71	113
1966.53	98
1967.36	116.5
1968.18	104.5
1969	117.5
1969.83	97.5
1970.65	92
1971.47	121
1972.3	111
1973.12	85
1973.94	124.5
1974.76	107
1975.58	100
1976.4	112.5
1977.22	99
1978.04	110
1978.86	97.5
1979.68	109
1980.5	111
1981.32	100
1982.14	94.5
1982.96	109
1983.78	103
1984.6	105
1985.42	103
1986.24	115
1987.06	107
1987.87	92
1988.69	112.5
1989.51	97.5
1990.32	95.5
1991.14	114
1991.96	93.5
1992.78	113
1993.59	112.5
1994.41	90
1995.22	80
1996.04	96
1996.85	95
1997.67	83.6262
1998.48	83.6769
1999.3	96.2989
2000.11	102.151
2000.93	92.3698
2001.74	84.9596
2002.56	98.0667
2003.37	95.9953
2004.18	81.4445
2004.99	108.804
2005.81	92.8902
2006.62	107.43
2007.43	97.0352
2008.25	93.9625
2009.06	94.1028
2009.87	100.006
2010.68	110.11
2011.49	94.0577
2012.3	96.324
2013.11	102.722
2013.92	94.8564
2014.73	98.0198
2015.54	98.8051
2016.35	88.6484
2017.16	98.3668
2017.97	99.1415
2018.78	90.4346
2019.59	106.496
2020.4	93.7495
2021.21	94.1049
2022.02	98.9509
2022.83	97.0179
2023.63	101.06
2024.44	100.011
2025.25	96.4445
2026.06	97.6109
2026.86	95.2955
2027.67	98.447
2028.48	96.0784
2029.28	94.8766
2030.09	87.5875
2030.89	98.4409
2031.7	102.389
2032.5	91.96
2033.31	94.049
2034.11	89.3708
2034.92	97.1872
2035.72	95.7085
2036.53	97.9061
2037.33	104.012
2038.14	85.3352
2038.94	93.1976
2039.74	101.04
2040.55	94.3252
2041.35	99.9965
2042.15	105.018
2042.95	99.1467
2043.76	96.6715
2044.56	99.5065
2045.36	102.567
2046.16	98.2557
2046.96	90.7771
2047.76	87.0565
2048.56	84.2501
2049.37	97.6286
2050.17	101.891
2050.97	92.1996
2051.77	85.4466
2052.57	86.8857
2053.36	91.1084
2054.16	93.8003
2054.96	86.9961
2055.76	102.634
2056.56	95.7962
2057.36	92.5309
2058.16	98.5625
2058.96	102.053
2059.75	100.045
2060.55	104.164
2061.35	104.689
2062.14	91.6282
2062.94	89.0727
2063.74	96.3171
2064.53	97.7444
2065.33	92.2318
2066.13	86.7818
2066.92	96.9902
2067.72	101.611
2068.51	102.995
2069.31	91.2614
2070.1	94.4499
2070.9	96.5711
2071.69	91.1138
2072.49	84.1992
2073.28	94.4508
2074.07	92.6522
2074.87	93.6553
2075.66	89.2673
2076.45	104.787
2077.25	108.09
2078.04	97.2973
2078.83	87.502
2079.62	96.4878
2080.41	107.01
2081.21	97.8183
2081.38	95
2082.2	98.5
2083.03	93.5
2083.86	91
2084.68	92
2085.51	90
2086.34	107
2087.16	98
2087.99	101
2088.81	102
2089.64	94.5
2090.46	93
2091.29	81
2092.11	92
2092.94	87
2093.76	83
2094.58	92.5
2095.41	87
2096.23	65
2097.06	79
2097.88	93
2098.7	100
2099.53	95
2100.35	86
2101.17	111
2101.99	91
2102.81	76
2103.64	88.5
2104.46	95
2105.28	93
2106.1	104.5
2106.92	75
2107.74	83
2108.56	91
2109.38	93.5
2110.2	90.5
2111.03	77
2111.84	85
2112.66	91.5
2113.48	95.5
2114.3	85
2115.12	95.5
2115.94	81
2116.76	110.5
2117.58	79
2118.4	87.5
2119.22	86.5
2120.03	95
2120.85	84.5
2121.67	83
2122.49	96.5
2123.3	90
2124.12	87
2124.94	87.5
2125.76	98
2126.57	79
2127.39	77.5
2128.2	72.5
2129.02	57
2129.83	74
2130.65	93
2131.47	96.5
2132.28	79
2133.1	86
2133.91	90
2134.73	84
2135.54	68
2136.35	76.5
2137.17	92
2137.98	91
2138.79	74.5
2139.61	78.5
2140.42	83
2141.23	76
2142.05	87
2142.86	77
2143.67	92
2144.48	87
2145.3	83.5
2146.11	79
2146.92	81
2147.73	88
2148.54	87.5
2149.35	80.5
2150.16	82
2150.97	86.5
2151.79	92
2152.6	84
2153.41	85
2154.22	84
2155.02	70
2155.83	89
2156.64	64
2157.45	83.5
2158.26	71
2159.07	67
2159.88	80
2160.69	65
2161.5	90.5
2162.3	79
2163.11	61.5
2163.92	76.5
2164.73	65
2165.53	69
2166.34	75
2167.15	80
2167.95	73
2168.76	73
2169.57	57
2170.37	49
2171.18	82
2171.98	56
2172.79	77.5
2173.59	58
2174.4	64
2175.2	69.5
2176.01	75
2176.81	88
2177.62	73
2178.42	54
2179.22	47
2180.03	85.5
2180.83	54.5
2181.63	85
2182.44	69
2183.24	64.5
2184.04	73.5
2184.85	70
2185.65	70.5
2186.45	70
2187.25	55.5
2188.05	63
2188.86	51
2189.66	65
2190.46	75
2191.26	67
2192.06	69
2192.86	75
2193.66	61
2194.46	71
2195.26	60
2196.06	65
2196.86	72
2197.66	50
2198.46	61.5
2199.26	54
2200.06	46
2200.85	50
2201.65	60.5
2202.45	48
2203.25	59
2204.05	61
2204.84	59
2205.64	54.5
2206.44	57.5
2207.24	67
2208.03	59
2208.83	47
2209.63	67
2210.42	61.5
2211.22	45
2212.01	50
2212.81	56
2213.61	55
2214.4	56
2215.2	48
2215.99	68
2216.79	66.5
2217.58	53
2218.37	60.5
2219.17	57.5
2219.96	53
2220.76	38
2221.55	59.5
2222.34	36
2223.14	57
2223.93	58.5
2224.72	55
2225.51	45
2226.31	40.5
2227.1	58
2227.89	59
2228.68	37
2229.47	58
2230.27	45.5
2231.06	57.5
2231.85	44
2232.64	44
2233.43	49
2234.22	38
2235.01	36
2235.8	44
2236.59	48
2237.38	57
2238.17	45
2238.96	52
2239.75	61.5
2240.54	60
2241.33	58
2242.11	46
2242.9	47
2243.69	43
2244.48	43.5
2245.27	35
2246.05	40
2246.84	49
2247.63	62.5
2248.41	47
2249.2	41
2249.99	58
2250.77	47.5
2251.56	52
2252.35	53
2253.13	41.5
2253.92	57
2254.7	26
2255.49	54
2256.27	38
2257.06	53.5
2257.84	58
2258.63	50
2259.41	41
2260.2	51.5
2260.98	38
2261.76	38
2262.55	51
2263.33	32
2264.11	45.5
2264.9	40
2265.68	48
2266.46	33
2267.24	54
2268.03	37
2268.81	43
2269.59	42
2270.37	40.5
2271.15	52
2271.93	45.5
2272.71	39
2273.5	58.5
2274.28	29
2275.06	19
2275.84	40.5
2276.62	48
2277.4	43.5
2278.18	42
2278.96	43.5
2279.73	36
2280.51	52.5
2281.29	41.5
2282.07	38.5
2282.85	42
2283.63	41
2284.41	39.5
2285.18	42
2285.96	37
2286.74	49.5
2287.52	23
2288.29	46.5
2289.07	43
2289.85	36
2290.62	31
2291.4	40
2292.18	54
2292.95	30
2293.73	39
2294.5	45
2295.28	32
2296.05	48
2296.83	48.5
2297.6	32
2298.38	30
2299.15	52.5
2299.93	17
2300.7	39
2301.48	43
2302.25	43.5
2303.02	30
2303.8	26
2304.57	23.5
2305.34	33
2306.11	19
2306.89	18
2307.66	42.5
2308.43	53.5
2309.2	30
2309.97	33.5
2310.75	31
2311.52	41.5
2312.29	44.5
2313.06	34
2313.83	44
2314.6	35
2315.37	40.5
2316.14	33
2316.91	38
2317.68	36.5
2318.45	45.5
2319.22	24
2319.99	34
2320.76	39
2321.53	30.5
2322.3	48
2323.06	18
2323.83	39.5
2324.6	41
2325.37	20
2326.14	28.5
2326.9	35.5
2327.67	40
2328.44	6
2329.21	27
2329.97	29.5
2330.74	26.5
2331.5	30
2332.27	40
2333.04	22
2333.8	2
2334.57	35
2335.33	26
2336.1	21
2336.86	25
2337.63	37.5
2338.39	23
2339.16	45
2339.92	22
2340.69	33
2341.45	33.5
2342.21	17
2342.98	22.5
2343.74	37
2344.5	34.5
2345.27	19
2346.03	26
2346.79	38
2347.55	27
2348.31	26.5
2349.08	28.5
2349.84	29
2350.6	11
2351.36	42
2352.12	36
2352.88	12
2353.64	31
2354.41	27
2355.17	15
2355.93	36.5
2356.69	32
2357.45	25.5
2358.21	32
2358.96	0
2359.72	17.5
2360.48	42
2361.24	33
2362	14.5
2362.76	23.5
2363.52	24.5
2364.28	21
2365.03	28
2365.79	20.5
2366.55	23
2367.31	9
2368.06	42.5
2368.82	35
2369.58	24
2370.33	16
2371.09	28
2371.85	39
2372.6	24
2373.36	18
2374.11	12.5
2374.87	12
2375.62	19
2376.38	18
2377.13	26
2377.89	22
2378.64	20
2379.4	21.5
2380.15	24
2380.9	14
2381.66	35.5
2382.41	13
2383.16	37
2383.92	18
2384.67	21
2385.42	20
2386.18	34
2386.93	26
2387.68	31
2388.43	32
2389.18	38
2389.94	15.5
2390.69	24.5
2391.44	11
2392.19	-2
2392.94	27
2393.69	22
2394.44	6
2395.19	1
2395.94	27.5
2396.69	13
2397.44	26.5
2398.19	33
2398.94	26
2399.69	12
2400.44	4
2401.19	12
2401.93	30
2402.68	15
2403.43	22
2404.18	18.5
2404.93	31.5
2405.67	-9
2406.42	20.5
2407.17	21.5
2407.92	10
2408.66	4
2409.41	24
2410.16	23
2410.9	23.5
2411.65	9
2412.39	20.5
2413.14	20
2413.89	25
2414.63	18
2415.38	20
2416.12	4
2416.86	30
2417.61	8
2418.35	40
2419.1	22
2419.84	10
2420.59	9.5
2421.33	22
2422.07	14
2422.82	16
2423.56	21
2424.3	14
2425.04	13.5
2425.79	16.5
2426.53	19
2427.27	8
2428.01	23
2428.75	13.5
2429.5	22.5
2430.24	10
2430.98	22
2431.72	26
2432.46	14
2433.2	10
2433.94	15
2434.68	22
2435.42	22.5
2436.16	14
2436.9	13
2437.64	11
2438.38	9.5
2439.12	9.5
2439.86	22.5
2440.59	7
2441.33	-9
2442.07	24
2442.81	18.5
2443.55	-3
2444.28	10.5
2445.02	16.5
2445.76	11
2446.5	19
2447.23	23.5
2447.97	19.5
2448.71	2
2449.44	9
2450.18	17
2450.91	11
2451.65	9
2452.39	8.5
2453.12	26.5
2453.86	17
2454.59	-7
2455.33	10.5
2456.06	8
2456.79	-3
2457.53	4.5
2458.26	18
2459	14
2459.73	9
2460.46	7
2461.2	9
2461.93	1.5
2462.66	1.5
2463.4	4
2464.13	24
2464.86	-6
2465.59	6.5
2466.32	18.5
2467.06	9
2467.79	-2
2468.52	11
2469.25	11
2469.98	34
2470.71	18.5
2471.44	14
2472.17	2.5
2472.9	10.5
2473.63	14
2474.36	19
2475.09	12
2475.82	5.5
2476.55	8
2477.28	13.5
2478.01	-5
2478.74	-5.5
2479.47	7.5
2480.19	12.5
2480.92	-4
2481.65	15
2482.38	11
2483.11	-45
2483.83	-19
2484.56	10
2485.29	-13
2486.01	7
2486.74	1
2487.47	14.5
2488.19	16
2488.92	-3
2489.65	10.5
2490.37	12.5
2491.1	0
2491.82	17
2492.55	16
2493.27	15
2494	10
2494.72	15.5
2495.45	9
2496.17	18
2496.89	-15
2497.62	15.5
2498.34	21.5
2499.06	4
2499.79	5
2500.51	11
2501.23	-5
2501.96	16.5
2502.68	15
2503.4	12
2504.12	11.5
2504.84	7
2505.57	4.5
2506.29	18
2507.01	2
2507.73	12.5
2508.45	8.5
2509.17	5
2509.89	-29
2510.61	9.5
2511.33	-28
2512.05	7
2512.77	-10
2513.49	1
2514.21	6.5
2514.93	14
2515.65	4
2516.37	5.5
2517.09	7.5
2517.81	3
2518.52	5.5
2519.24	2
2519.96	-2
2520.68	-6
2521.4	5
2522.11	4.5
2522.83	2
2523.55	11
2524.26	14
2524.98	4
2525.7	16
2526.41	4.5
2527.13	12
2527.84	11
2528.56	-6
2529.28	3
2529.99	18.5
2530.71	21.5
2531.42	6.5
2532.14	1
2532.85	17
2533.56	-3
2534.28	4.5
2534.99	17.5
2535.71	-2
2536.42	-9.5
2537.13	-10
2537.85	9
2538.56	3
2539.27	-21
2539.98	0
2540.7	-7
2541.41	-2
2542.12	-8.5
2542.83	5.5
2543.54	12
2544.26	-2
2544.97	0.5
2545.68	-1
2546.39	-14
2547.1	1
2547.81	9
2548.52	-3
2549.23	1
2549.94	-2.5
2550.65	6
2551.36	-12
2552.07	12
2552.78	7.5
2553.49	15.5
2554.2	-12
2554.91	-6
2555.61	5
2556.32	1
2557.03	6
2557.74	-9.5
2558.45	14
2559.15	-7
2559.86	6
2560.57	-7
2561.27	12
2561.98	6
2562.69	7
2563.39	3.5
2564.1	-8
2564.81	3.5
2565.51	7.5
2566.22	3
2566.92	-34
2567.63	3.5
2568.33	-8
2569.04	-13
2569.74	7
2570.45	-1.5
2571.15	9
2571.86	-30
2572.56	4
2573.26	4.5
2573.97	1.5
2574.67	3
2575.37	9
2576.08	-9.5
2576.78	-2
2577.48	5
2578.19	-11.5
2578.89	1
2579.59	-4
2580.29	-7
2580.99	18
2581.69	0
2582.4	-1.5
2583.1	-8.5
2583.8	6.5
2584.5	-10
2585.2	-6
2585.9	-3
2586.6	-15
2587.3	2
2588	8
2588.7	-3
2589.4	0
2590.1	3
2590.8	7
2591.5	6.5
2592.19	1
2592.89	12
2593.59	-14
2594.29	-2
2594.99	-27
2595.68	-5
2596.38	6
2597.08	-5
2597.78	-5
2598.47	-3.5
2599.17	-1.5
2599.87	-8
2600.56	18
2601.26	0.5
2601.96	0
2602.65	-17
2603.35	11
2604.04	-5
2604.74	-15
2605.43	4
2606.13	-0.5
2606.82	-0.5
2607.52	-6
2608.21	10.5
2608.91	-2.5
2609.6	0.5
2610.29	-1.5
2610.99	4.5
2611.68	-5
2612.37	-3
2613.07	-18
2613.76	-11.5
2614.45	-1.5
2615.15	-4
2615.84	-4
2616.53	-9
2617.22	7
2617.91	-1
2618.6	-5
2619.3	-13.5
2619.99	1
2620.68	-1
2621.37	-15
2622.06	6
2622.75	-11
2623.44	-2
2624.13	-2
2624.82	6
2625.51	-11
2626.2	-6
2626.89	-14
2627.58	-16
2628.27	0
2628.96	-4.5
2629.64	-8
2630.33	-19
2631.02	4
2631.71	1
2632.4	-1.5
2633.08	0
2633.77	-7
2634.46	-2.5
2635.15	21
2635.83	-8
2636.52	-8.5
2637.21	-16
2637.89	-11
2638.58	2
2639.26	-10
2639.95	2
2640.64	-14
2641.32	-10
2642.01	0
2642.69	-2
2643.38	-7.5
2644.06	2
2644.75	-2.5
2645.43	-3
2646.11	7
2646.8	-7
2647.48	-10
2648.16	-49
2648.85	-6.5
2649.53	-1.5
2650.21	-18
2650.9	-8.5
2651.58	-12
2652.26	-14
2652.94	-10
2653.63	1.5
2654.31	-4
2654.99	2.5
2655.67	-5
2656.35	-11.5
2657.03	-7.5
2657.71	-21
2658.39	-8.5
2659.08	-3
2659.76	-21
2660.44	-28
2661.12	-9.5
2661.8	6.5
2662.48	-19
2663.15	-13
2663.83	-9
2664.51	-13
2665.19	-10
2665.87	-13.5
2666.55	-5
2667.23	-9
2667.91	-6
2668.58	-15
2669.26	-10
2669.94	-15
2670.62	-7
2671.29	-21
2671.97	-18
2672.65	-5
2673.32	-17
2674	-3.5
2674.68	-17
2675.35	-13
2676.03	-21.5
2676.7	0
2677.38	-14
2678.06	-5.5
2678.73	-7.5
2679.41	-15
2680.08	-10
2680.75	-8.5
2681.43	-17
2682.1	-26
2682.78	-20.5
2683.45	-4.5
2684.12	-18
2684.8	-12
2685.47	-0.5
2686.14	-15.5
2686.82	-7.5
2687.49	-23
2688.16	-3
2688.83	-16.5
2689.51	-15
2690.18	-1
2690.85	-12
2691.52	-8
2692.19	5
2692.86	-15.5
2693.54	-17.9218
2694.21	-8.85541
2694.88	4.30461
2695.55	-3.05771
2696.22	-18.8663
2696.89	-6.95631
2697.56	-16.87
2698.23	-11.9253
2698.9	-11.5846
2699.57	-7.75614
2700.24	-19.8775
2700.91	-15.1458
2701.57	-6.63717
2702.24	-6.587
2702.91	-2.58619
2703.58	-11.2203
2704.25	-27.0622
2704.92	-13.4289
2705.58	-10.2872
2706.25	-7.10306
2706.92	-5.51792
2707.58	-3.83062
2708.25	-7.47468
2708.92	-5.10264
2709.59	-4.47927
2710.25	1.79211
2710.92	-14.161
2711.58	-28.4484
2712.25	-5.59434
2712.92	3.55445
2713.58	-13.6772
2714.25	5.81476
2714.91	-19.8328
2715.58	-9.15538
2716.24	-8.31349
2716.91	-7.06662
2717.57	-2.65929
2718.23	-7.81894
2718.9	-28.4821
2719.56	-16.0533
2720.23	-9.40989
2720.89	-15.1486
2721.55	-8.05963
2722.22	-10.0361
2722.88	-0.816557
2723.54	-11.4429
2724.2	-9.94941
2724.87	-5.41026
2725.53	-1.33652
2726.19	-13.703
2726.85	-23.617
2727.51	-0.467935
2728.18	-1.27438
2728.84	-3.86778
2729.5	-13.1941
2730.16	-6.79387
2730.82	-5.71424
2731.48	-17.0372
2732.14	-17.0214
2732.8	-19.622
2733.46	-13.245
2734.12	-16.6635
2734.78	-3.55934
2735.44	1.29456
2736.1	-9.99934
2736.76	-7.07116
2737.42	-2.85336
2738.07	-8.08698
2738.73	-15.3845
2739.39	-18.5288
2740.05	-3.08314
2740.71	-6.52821
2741.37	-9.40023
2742.02	-9.14766
2742.68	-5.96587
2743.34	-4.28846
2743.99	-6.19747
2744.65	-4.9119
2745.31	-2.12017
2745.96	-3.49824
2746.62	-8.4155
2747.28	-10.9026
2747.93	-0.600891
2748.59	6.56553
2749.24	-12.2311
2749.9	-11.2533
2750.55	1.79045
2751.21	-3.68797
2751.86	-5.25895
2752.52	6.40003
2753.17	5.81848
2753.83	-4.55666
2754.48	-13.0914
2755.14	-3.46263
2755.79	-2.26022
2756.44	-2.31176
2757.1	-0.291683
2757.75	1.3357
2758.4	-7.86003
2759.05	-14.3603
2759.71	-1.00174
2760.36	2.22496
2761.01	4.03008
2761.66	-3.78521
2762.32	-8.94614
2762.97	-6.93943
2763.63	-3
2764.32	-7
2765.01	18
2765.69	11.5
2766.38	8.5
2767.07	-10
2767.75	-2
2768.44	6.5
2769.12	-1.5
2769.81	-20
2770.49	21
2771.18	-14
2771.87	0.5
2772.55	13
2773.24	2
2773.92	5.5
2774.6	-17.5
2775.29	12
2775.97	2.5
2776.66	-7
2777.34	-10
2778.03	4
2778.71	0.5
2779.39	-3
2780.08	-8
2780.76	8.5
2781.44	-2.5
2782.12	-5
2782.81	6
2783.49	8
2784.17	-1.5
2784.85	-23
2785.54	-25
2786.22	3.5
2786.9	0
2787.58	4
2788.26	14.5
2788.94	-2
2789.63	-3
2790.31	2
2790.99	-4
2791.67	-3
2792.35	-10
2793.03	1
2793.71	-3
2794.39	-8
2795.07	3
2795.75	-12
2796.43	-3
2797.11	-8
2797.79	-0.5
2798.46	-9.5
2799.14	1.5
2799.82	-2.5
2800.5	2
2801.18	-12
2801.86	-9
2802.54	-4
2803.21	-6.5
2803.89	-11
2804.57	6
2805.25	13
2805.92	-2.5
2806.6	-8
2807.28	1
2807.95	-9
2808.63	-5
2809.31	-3
2809.98	6.5
2810.66	-10
2811.34	-17
2812.01	-12
2812.69	10.5
2813.36	1
2814.04	-13
2814.71	-17
2815.39	7
2816.06	-3.5
2816.74	-4
2817.41	4
2818.09	-5
2818.76	-9
2819.44	-15
2820.11	-2.5
2820.78	1.5
2821.46	-13.5
2822.13	9
2822.8	0.5
2823.48	-3.5
2824.15	-3
2824.82	0
2825.49	-10
2826.17	-3
2826.84	8
2827.51	-6.5
2828.18	-5.5
2828.86	-9
2829.53	2
2830.2	-8
2830.87	-12
2831.54	-16
2832.21	1.5
2832.88	-6.5
2833.55	-12
2834.22	-13
2834.9	-9.5
2835.56	-3.5
2836.23	-29
2836.91	-12
2837.57	-2
2838.24	-10.5
2838.91	-1
2839.58	-3
2840.25	-7.5
2840.92	-21
2841.59	-16
2842.26	5.5
2842.93	-15.5
2843.6	-8
2844.26	-1
2844.93	-14
2845.6	-15
2846.27	-7
2846.93	-10
2847.6	-9
2848.27	-13
2848.94	-16
2849.6	-3
2850.27	-17.5
2850.94	-25
2851.6	-9.5
2852.27	-13.5
2852.94	-15
2853.6	-12
2854.27	-7
2854.93	-22
2855.6	-30.5
2856.26	-0.5
2856.93	-11.5
2857.59	-1.5
2858.26	-18.5
2858.92	-6
2859.59	-13.5
2860.25	-16
2860.92	-13
2861.58	-7
2862.24	-5.5
2862.91	-19
2863.57	-3
2864.23	-7
2864.9	-11
2865.56	-32
2866.22	-12
2866.89	-29
2867.55	-23.5
2868.21	-18
2868.87	-9.5
2869.54	-26
2870.2	-20
2870.86	-13
2871.52	-0.5
2872.18	-26
2872.84	-18
2873.51	-9.5
2874.17	-19
2874.83	-25
2875.49	-10.5
2876.15	-11.5
2876.81	-16
2877.47	-11
2878.13	-35
2878.79	-9
2879.45	-22.5
2880.11	-20.5
2880.77	-13.5
2881.43	-19.5
2882.09	-34
2882.75	-20
2883.4	-11.5
2884.06	-19
2884.72	-39
2885.38	-1
2886.04	-22
2886.7	-35.5
2887.35	-21
2888.01	-13
2888.67	-22.5
2889.33	-26.5
2889.98	-28
2890.64	-2
2891.3	-40.5
2891.95	-29
2892.61	-23
2893.27	-8
2893.92	-25
2894.58	-7.5
2895.23	-18.5
2895.89	-30
2896.55	-18
2897.2	-29
2897.86	-14
2898.51	-22.5
2899.17	-33
2899.82	-19
2900.48	-16
2901.13	-18
2901.79	-11
2902.44	-18
2903.09	-30
2903.75	-40
2904.4	-23.5
2905.05	-26.5
2905.71	-47
2906.36	-16
2907.01	-21
2907.67	-27.5
2908.32	-15.5
2908.97	-10
2909.63	-5.5
2910.28	-25.5
2910.93	-28
2911.58	-17
2912.23	-14
2912.88	-29
2913.54	-45
2914.19	-19.5
2914.84	-28.5
2915.49	-17
2916.14	-19
2916.79	-14
2917.44	-24
2918.09	-30
2918.74	-25
2919.39	-33
2920.04	-30
2920.69	-20
2921.34	-27
2921.99	-16.5
2922.64	-24
2923.29	-19
2923.94	-26
2924.59	-24
2925.23	-11
2925.88	-6
2926.53	-33.5
2927.18	-20
2927.83	-21
2928.48	-12.5
2929.12	-27
2929.77	-17
2930.42	-19
2931.07	-18.5
2931.71	-29
2932.36	-16.5
2933.01	-27
2933.65	-14.5
2934.3	-29
2934.95	-7.5
2935.59	-10
2936.24	-26.5
2936.88	-17
2937.53	-15.5
2938.17	-27.5
2938.82	-29
2939.46	-29
2940.11	-11
2940.75	-27.5
2941.4	-14
2942.04	-34
2942.69	-27
2943.33	-29
2943.98	-41
2944.62	-19
2945.26	-23
2945.91	-35
2946.55	-25
2947.19	-21
2947.84	-24.5
2948.48	-32
2949.12	-42
2949.76	-13.5
2950.41	-28
2951.05	-24
2951.69	-16.5
2952.33	-37
2952.98	-51
2953.62	-10.5
2954.26	-38
2954.9	-11.5
2955.54	-18.5
2956.18	-36
2956.82	-14.5
2957.46	-29
2958.1	-24.5
2958.74	-20
2959.38	-19.5
2960.02	-20
2960.66	-31
2961.3	-25
2961.94	-38
2962.58	-25.5
2963.22	-11.5
2963.86	-25
2964.5	-36
2965.14	-19.5
2965.78	-10
2966.42	-16
2967.05	-46
2967.69	-31.5
2968.33	-30.5
2968.97	-29.5
2969.61	-33
2970.24	-31
2970.88	-39
2971.52	-27
2972.15	-27
2972.79	-18.5
2973.43	-36
2974.06	-24
2974.7	-21
2975.34	-16
2975.97	-20
2976.61	-29.5
2977.24	-28
2977.88	-37.5
2978.52	-18
2979.15	-38
2979.79	-15
2980.42	-29
2981.06	-36
2981.69	-13
2982.32	-15.5
2982.96	-42
2983.59	-45
2984.23	-26
2984.86	-18.5
2985.49	-25
2986.13	-33
2986.76	-21.5
2987.39	-26
2988.03	-38
2988.66	-35
2989.29	-20
2989.93	-41
2990.56	-33
2991.19	-5.5
2991.82	-24.5
2992.45	-58
2993.09	-43
2993.72	-16
2994.35	-35.5
2994.98	-34
2995.61	-15
2996.24	-21.5
2996.87	-41
2997.5	-29
2998.14	-9.5
2998.77	-31
2999.4	-38
3000.03	-22
3000.66	-24
3001.29	-34
3001.91	-42
3002.54	-27
3003.17	-30.5
3003.8	-32.5
3004.43	-28
3005.06	-9
3005.69	-13.5
3006.32	-30
3006.95	-31
3007.57	-20.5
3008.2	-31
3008.83	-33
3009.46	-27
3010.08	-23.5
3010.71	-37
3011.34	-35
3011.97	-23
3012.59	-25.5
3013.22	-25
3013.85	-30
3014.47	-22.5
3015.1	-32
3015.72	-29
3016.35	-33
3016.98	-38.5
3017.6	-39.5
3018.23	-24.5
3018.85	-10
3019.48	-26
3020.1	-30.5
3020.73	-16.5
3021.35	-19
3021.98	-35
3022.6	-43
3023.23	-24
3023.85	-34.5
3024.47	-37
3025.1	-25
3025.72	-11.5
3026.34	-26
3026.97	-31
3027.59	-37
3028.21	-19
3028.84	-40
3029.46	-17
3030.08	-18
3030.7	-23.5
3031.32	-32
3031.95	-30
3032.57	-10
3033.19	-25
3033.81	-40
3034.43	-13
3035.05	-29
3035.68	-33
3036.3	-41
3036.92	-20
3037.54	-35.5
3038.16	-39
3038.78	-36
3039.4	-19
3040.02	-24.5
3040.64	-28
3041.26	-32.5
3041.88	-26
3042.5	-45.5
3043.12	-33
3043.73	-22
3044.35	-22.5
3044.97	-39.5
3045.59	-25
3046.21	-30.5
3046.83	-40.5
3047.44	-35
3048.06	-27
3048.68	-30.5
3049.3	-29.5
3049.92	-25
3050.53	-15.5
3051.15	-48
3051.77	-39
3052.38	-33
3053	-34
3053.62	-32
3054.23	-30
3054.85	-18
3055.46	-25.5
3056.08	-45.5
3056.7	-38
3057.31	-21
3057.93	-34.5
3058.54	-45
3059.16	-30
3059.77	-27
3060.39	-27
3061	-26.5
3061.61	-19
3062.23	-22
3062.84	-43
3063.46	-22
3064.07	-26
3064.68	-36.5
3065.3	-38
3065.91	-20
3066.52	-30.5
3067.14	-30.5
3067.75	-30
3068.36	-20
3068.98	-25.5
3069.59	-33
3070.2	-37
3070.81	-18
3071.42	-33.5
3072.04	-30
3072.65	-26
3073.26	-30.5
3073.87	-37
3074.48	-24
3075.09	-16.5
3075.7	-43.5
3076.31	-41
3076.92	-41
3077.53	-20
3078.14	-35.5
3078.75	-41
3079.36	-21
3079.97	-37
3080.58	-26.5
3081.19	-19
3081.8	-31.5
3082.41	-31
3083.02	-38
3083.63	-26
3084.24	-28
3084.84	-30
3085.45	-50
3086.06	-23
3086.67	-39
3087.28	-26
3087.88	-22.5
3088.49	-20.5
3089.1	-48
3089.71	-27
3090.31	-30
3090.92	-25.5
3091.53	-30
3092.13	-45
3092.74	-19.5
3093.34	-23.5
3093.95	-52
3094.56	-15
3095.16	-31
3095.77	-25.5
3096.37	-42
3096.98	-28
3097.58	-26.5
3098.19	-24
3098.79	-29
3099.4	-35
3100	-44
3100.61	-36.5
3101.21	-36
3101.81	-27
3102.42	-31
3103.02	-35.5
3103.63	-33
3104.23	-31
3104.83	-39
3105.43	-32.25
3106.04	-30.5
3106.64	-30.5
3107.24	-40
3107.85	-30
3108.45	-28
3109.05	-26
3109.65	-32
3110.25	-26
3110.86	-13
3111.46	-31.5
3112.06	-24
3112.66	-28
3113.26	-21
3113.86	-37.5
3114.46	-12.5
3115.06	-25.5
3115.66	-32.5
3116.26	-35
3116.86	-45
3117.46	-31
3118.06	-41
3118.66	-43
3119.26	-36.5
3119.86	-31
3120.46	-34
3121.06	-24.5
3121.66	-38
3122.26	-38.5
3122.85	-56
3123.45	-31
3124.05	-29
3124.65	-34
3125.25	-39
3125.84	-28
3126.44	-37
3127.04	-48
3127.64	-27
3128.23	-28.5
3128.83	-39
3129.43	-44
3130.02	-36
3130.62	-33.5
3131.22	-42
3131.81	-24.5
3132.41	-17.5
3133	-32
3133.6	-44
3134.19	-12.5
3134.79	-41.5
3135.39	-32
3135.98	-35
3136.58	-26
3137.17	-39.5
3137.76	-30
3138.36	-35
3138.95	-24
3139.55	-32.5
3140.14	-38
3140.73	-18.5
3141.33	-34
3141.92	-32
3142.51	-38
3143.11	-33
3143.7	-27
3144.29	-37
3144.89	-34
3145.48	-29.5
3146.07	-37
3146.66	-46
3147.26	-30.5
3147.85	-21
3148.44	-32
3149.03	-49
3149.62	-26.5
3150.21	-27.5
3150.8	-37
3151.39	-38
3151.99	-29.5
3152.58	-37.5
3153.17	-34
3153.76	-17.5
3154.35	-26
3154.94	-31.5
3155.53	-33
3156.12	-23.5
3156.71	-30
3157.29	-14
3157.88	-38
3158.47	-22
3159.06	-34
3159.65	-30.5
3160.24	-21
3160.83	-32.5
3161.42	-23
3162	-40
3162.59	-32.5
3163.18	-41.5
3163.77	-57
3164.35	-39.5
3164.94	-29
3165.53	-29
3166.12	-41
3166.7	-25
3167.29	-47.5
3167.88	-22.5
3168.46	-45
3169.05	-36
3169.64	-22.5
3170.22	-44
3170.81	-29
3171.39	-24
3171.98	-34
3172.56	-34
3173.15	-30
3173.73	-27
3174.32	-39
3174.9	-19
3175.49	-25
3176.07	-32
3176.65	-28
3177.24	-26
3177.82	-30.5
3178.41	-40.5
3178.99	-30
3179.57	-22
3180.16	-35.5
3180.74	-46.5
3181.32	-31
3181.91	-29
3182.49	-31
3183.07	-32.5
3183.65	-24
3184.23	-33
3184.82	-41.5
3185.4	-37
3185.98	-26.5
3186.56	-35
3187.14	-32.5
3187.72	-32
3188.3	-24.5
3188.89	-28
3189.47	-18
3190.05	-23
3190.63	-32.5
3191.21	-28
3191.79	-25
3192.37	-23.5
3192.95	-39.5
3193.53	-20.5
3194.11	-42
3194.69	-35
3195.26	-33.5
3195.84	-50
3196.42	-32
3197	-26
3197.58	-26
3198.16	-36
3198.74	-23
3199.31	-38.5
3199.89	-32.5
