100.582	3953
101.867	3912.6
103.152	3865.2
104.437	3875.6
105.721	3891
107.004	3834.6
108.287	3815.6
109.571	3811.2
110.853	3777.8
112.136	3799.2
113.418	3785
114.7	3759.4
115.981	3751.8
117.262	3698.6
118.543	3666.8
119.823	3625.2
121.103	3589.6
122.383	3530.6
123.663	3553.6
124.942	3497.8
126.221	3428.8
127.499	3395.4
128.777	3389
130.056	3424.4
131.333	3378.6
132.61	3350.8
133.887	3321.4
135.163	3323.2
136.439	3307.4
137.715	3271.2
138.992	3303.2
140.267	3242.6
141.541	3188.6
142.816	3160.6
144.09	3152.2
145.364	3106.4
146.637	3064.2
147.911	3017.6
149.184	2974.6
150.457	2976.8
151.729	2921.8
153.001	2916.8
154.273	2912
155.544	2878.2
156.815	2831.8
158.086	2835
159.356	2774.6
160.626	2800.6
161.896	2763.8
163.165	2726.2
164.434	2749.2
165.703	2724
166.971	2732.4
168.24	2720.4
169.507	2667.2
170.774	2646.6
172.042	2664.2
173.309	2617.6
174.575	2574
175.841	2551.2
177.107	2557.6
178.373	2498
179.637	2524.2
180.902	2522.4
182.167	2489.4
183.431	2462.2
184.695	2396.4
185.958	2387.4
187.222	2344.8
188.485	2338.4
189.747	2308.6
191.009	2332.6
192.272	2306.4
193.534	2310.2
194.795	2269.8
196.055	2296.6
197.316	2285
198.577	2257.8
199.837	2254.2
201.096	2259.4
202.356	2276.6
203.615	2263.6
204.873	2215
206.132	2222
207.39	2240
208.648	2203
209.905	2212.2
211.162	2174.8
212.419	2168.4
213.675	2150.2
214.932	2152
216.187	2144
217.443	2139.2
218.697	2105.6
219.953	2090.2
221.207	2059.8
222.462	2093.8
223.715	2056.4
224.969	2021.8
226.222	2029.8
227.475	1994.6
228.727	2002.6
229.98	1996.2
231.232	2005
232.483	2016.4
233.734	1992.2
234.986	2007.2
236.236	1978.8
237.486	1966.2
238.737	1961
239.986	1993.6
241.235	2007.8
242.484	1975.2
243.733	1975.8
244.981	2003.2
246.229	2005.8
247.477	1973.8
248.725	1996.2
249.971	1996.6
251.219	1963.2
252.465	1978.8
253.711	1974.8
254.957	1932.8
256.203	1907.4
257.448	1927.2
258.693	1896.4
259.937	1901.8
261.181	1857.2
262.425	1865
263.669	1861.8
264.912	1838.4
266.155	1843
267.398	1859.8
268.64	1821.2
269.881	1806.6
271.123	1795.6
272.364	1815.6
273.605	1786.8
274.846	1802.6
276.086	1761.2
277.326	1776.8
278.566	1767.8
279.806	1764.6
281.045	1757.2
282.283	1756.4
283.522	1718.8
284.76	1715.8
285.998	1696.4
287.235	1728.6
288.473	1697.8
289.71	1701.2
290.946	1700.2
292.182	1692.2
293.418	1676
294.654	1675.8
295.888	1676.2
297.123	1655.2
298.358	1636.6
299.592	1660
300.826	1662.6
302.06	1638.2
303.293	1609.6
304.526	1612.8
305.759	1610.2
306.991	1610
308.223	1591.6
309.455	1560.6
310.687	1572
311.917	1538.8
313.148	1555.8
314.379	1520
315.609	1521.6
316.839	1514.4
318.068	1495.4
319.297	1511.8
320.526	1504
321.754	1497.6
322.982	1477.2
324.21	1446.2
325.438	1475.4
326.665	1459.4
327.892	1455.8
329.118	1437.4
330.345	1469.2
331.571	1467
332.797	1419.6
334.022	1442.2
335.247	1413.4
336.471	1418.2
337.696	1394.2
338.92	1408
340.144	1391.4
341.367	1377.8
342.591	1379
343.813	1366
345.036	1353.8
346.257	1349.2
347.48	1353.8
348.701	1346.4
349.922	1341.2
351.143	1327
352.363	1299.4
353.583	1310.8
354.803	1299.2
356.023	1308.4
357.243	1305.4
358.462	1289.8
359.68	1266.2
360.899	1259
362.117	1266.6
363.334	1235.2
364.551	1257
365.769	1247.4
366.986	1220
368.202	1212.6
369.418	1214.8
370.633	1212.4
371.849	1210
373.065	1200.4
374.279	1177.6
375.494	1183.2
376.708	1160
377.921	1196.2
379.136	1183
380.349	1182.6
381.562	1178.6
382.774	1157.4
383.987	1144.8
385.198	1131.8
386.41	1125
387.621	1120.2
388.832	1127.6
390.043	1113
391.253	1142.6
392.463	1117.6
393.674	1094.2
394.883	1117.2
396.092	1103.2
397.301	1105
398.509	1107.4
399.717	1134.8
400.925	1087.4
402.133	1115.4
403.34	1107
404.547	1103.6
405.753	1092.4
406.96	1066
408.165	1093.8
409.371	1074.2
410.576	1059.6
411.781	1042.6
412.986	1072.2
414.191	1074.4
415.394	1049.6
416.598	1050.2
417.802	1064.2
419.005	1052.6
420.208	1053.2
421.41	1075.6
422.613	1060
423.815	1039.2
425.016	1028
426.217	1028.6
427.418	1032.2
428.619	1062.2
429.818	1034.8
431.019	1026.4
432.218	1050
433.418	1038.6
434.617	1036.6
435.815	1041.4
437.014	1018.8
438.212	1008.2
439.41	1005.6
440.607	1014.8
441.805	1017.8
443.001	1006.2
444.198	986.4
445.394	1000
446.59	1013.8
447.785	964.2
448.98	997.4
450.175	990
451.37	996.8
452.564	981.6
453.758	984.8
454.952	995.2
456.145	980
457.339	963.4
458.531	975.8
459.724	980.6
460.916	966
462.107	946.8
463.299	970.2
464.49	966.8
465.681	969.4
466.871	965
468.062	985.4
469.252	979.2
470.441	951.4
471.631	972.2
472.819	975.6
474.008	946.6
475.196	965.2
476.385	960
477.572	936.6
478.76	960.2
479.946	973.2
481.133	948.4
482.32	944.6
483.506	948.8
484.692	946.8
485.877	952
487.063	961.8
488.247	945.8
489.432	939.4
490.616	941.2
491.8	941.6
492.984	922.8
494.167	924
495.35	913.8
496.533	901.8
497.715	902
498.897	897.8
500.079	884.6
501.26	893.4
502.441	867
503.622	869.2
504.803	867.4
505.983	870.2
507.163	854.6
508.342	846.8
509.522	855.4
510.701	856
511.88	840.6
513.058	832
514.236	844
515.413	847.4
516.591	845.8
517.768	841.6
518.945	860.8
520.121	853.6
521.297	854.4
522.473	836.2
523.648	828
524.823	828
525.998	842
527.173	848.6
528.348	825.6
529.522	841.2
530.694	844.8
531.868	843
533.041	842.8
534.214	826.4
535.386	829.6
536.558	821.4
537.731	815.4
538.902	826.4
540.073	830.2
541.244	845.4
542.414	806.4
543.585	813.8
544.754	807
545.924	797.8
547.094	806.8
548.262	800.4
549.431	810.8
550.6	790
551.767	788.4
552.935	817
554.103	781.2
555.27	793
556.436	789.2
557.603	802.8
558.769	778.4
559.935	760.4
561.1	777.6
562.266	784.6
563.431	781
564.595	778
565.759	805.2
566.924	796.6
568.087	774.8
569.25	761.2
570.414	767.8
571.576	760.2
572.739	783.8
573.901	788.2
575.062	768.4
576.224	763.8
577.385	767.8
578.546	784.6
579.707	748.8
580.867	767.2
582.028	781
583.187	767.6
584.347	756.4
585.505	756
586.664	767.6
587.822	782.8
588.98	763.6
590.138	751.4
591.296	755
592.453	767.8
593.61	753.2
594.767	771.8
595.922	757
597.079	762.4
598.234	750.6
599.39	757
600.544	756.4
601.699	761
602.854	749
604.008	746
605.161	761.8
606.315	763.8
607.468	754.8
608.621	743.4
609.774	771.2
610.926	765
612.078	740.6
613.229	746.2
614.381	728.2
615.532	766.2
616.682	765.4
617.833	755.4
618.983	770.6
620.133	745.2
621.282	767.2
622.431	732.2
623.58	723.4
624.729	765
625.877	738
627.025	730.6
628.172	734.2
629.32	739.6
630.467	726
631.614	735.8
632.76	733.8
633.906	745.4
635.052	742.8
636.197	723.4
637.343	729.4
638.488	722.8
639.632	721.2
640.776	727.8
641.92	717.8
643.064	712.6
644.207	691.8
645.35	720.8
646.493	716.4
647.635	722.6
648.777	740.4
649.919	734.2
651.06	724
652.202	712.2
653.342	732.4
654.483	729.6
655.624	682.8
656.764	711.6
657.903	714.8
659.043	709.2
660.181	721.6
661.32	702.8
662.459	717
663.596	688.2
664.735	693.6
665.872	702
667.009	710.2
668.146	670.6
669.282	692.4
670.419	721.4
671.555	708
672.69	710.8
673.826	696.2
674.96	717.2
676.096	715.2
677.23	694.4
678.364	717.6
679.498	688.8
680.631	694.4
681.765	684.4
682.897	729
684.03	707.4
685.163	691.4
686.294	713.4
687.426	688.2
688.557	713.2
689.689	696.4
690.819	698
691.949	702.8
693.079	690.4
694.21	688.8
695.339	704.8
696.468	698.8
697.597	699.8
698.725	690.2
699.854	701
700.982	718.2
702.11	729
703.237	729
704.364	708.4
705.491	717.6
706.617	713.8
707.744	709.2
708.87	689.6
709.995	697.2
711.12	704.2
712.245	704.6
713.37	681.6
714.495	684.4
715.618	711.2
716.742	696.8
717.865	701.6
718.989	697.8
720.112	715
721.234	676.2
722.356	705.8
723.478	693.2
724.6	692.2
725.721	707.4
726.842	692.6
727.962	705
729.083	693
730.203	686.6
731.323	704.2
732.442	719.4
733.562	699.6
734.681	696.4
735.799	701.4
736.917	699
738.036	664.6
739.153	669
740.27	684.4
741.387	658.2
742.505	669.6
743.62	675.2
744.736	683.2
745.853	686.6
746.968	667.4
748.083	689
749.199	698.8
750.313	679.8
751.427	694.4
752.541	680
753.655	679.8
754.768	677
755.882	680.6
756.994	680.2
758.107	674
759.219	697
760.331	679.8
761.443	675.4
762.554	674.6
763.665	694
764.776	697.2
765.885	670.6
766.996	679
768.106	674.8
769.215	708.8
770.324	678.6
771.434	673.4
772.542	684.6
773.65	691
774.758	678.2
775.865	658.6
776.973	698.6
778.081	657
779.187	670.4
780.293	668
781.399	690
782.506	679.8
783.611	675.6
784.716	686
785.821	681.6
786.926	640
788.03	666.4
789.134	665.4
790.238	659.4
791.341	682.8
792.444	679.2
793.547	679.6
794.65	666
795.752	678.2
796.854	679.2
797.956	661.2
799.057	660
800.158	663
801.259	675
802.359	661
803.459	665
804.559	674.8
805.659	665.4
806.758	660.6
807.857	664
808.955	675.2
810.053	652.4
811.152	671.8
812.25	669
813.347	672.8
814.444	663.2
815.541	645
816.638	648.4
817.733	668.2
818.83	653.8
819.925	657
821.02	658.4
822.115	662.4
823.21	668
824.305	659.8
825.398	669.4
826.492	655.4
827.586	648
828.679	657.4
829.772	649.6
830.865	672.6
831.957	641
833.049	656.2
834.141	675.4
835.232	651.2
836.323	643.6
837.414	678
838.505	649.2
839.595	651.2
840.685	661.6
841.774	645.8
842.864	645.4
843.952	655
845.041	641.2
846.129	652.4
847.218	634
848.306	646.4
849.393	657
850.48	642.8
851.567	629
852.654	642
853.74	646.4
854.826	641.2
855.912	650.8
856.997	641.4
858.082	650.8
859.167	646.4
860.252	633
861.336	643.6
862.42	643.6
863.504	657.2
864.587	644
865.67	642.2
866.753	654.6
867.835	649.6
868.917	651.8
869.999	643
871.081	635
872.162	640.8
873.243	636.6
874.323	640.8
875.404	633
876.484	619
877.564	630
878.643	632.8
879.722	642.8
880.802	621.6
881.88	623.8
882.958	629.2
884.036	621.8
885.113	643.4
886.191	649.8
887.268	618.2
888.344	637.6
889.421	623.6
890.498	607.6
891.573	597.8
892.649	640.4
893.724	626.8
894.799	625.4
895.874	642
896.948	625.4
898.022	628.2
899.096	624.2
900.17	636
901.243	615.6
902.315	630.6
903.389	599.2
904.461	622.2
905.533	617
906.605	619.8
907.676	629.4
908.747	642.4
909.818	617.6
910.888	630.6
911.958	626.4
913.028	622.8
914.098	628.2
915.167	611.6
916.237	641.6
917.306	602.8
918.374	613.6
919.442	623.4
920.51	615.8
921.577	618.2
922.644	613.2
923.711	620.4
924.778	623
925.845	616.4
926.911	630.2
927.977	624.8
929.042	632.6
930.107	620.2
931.173	613
932.237	613
933.301	628
934.365	610.2
935.429	619
936.492	613.4
937.556	594.4
938.619	612.6
939.681	620.4
940.743	616.4
941.805	604.6
942.867	597.2
943.928	609
944.989	587
946.05	599.6
947.11	612.8
948.17	607.4
949.23	622
950.29	615
951.349	601.4
952.409	608
953.467	600.2
954.526	597.6
955.584	614.6
956.641	601.6
957.699	585.2
958.756	599.2
959.813	605.8
960.869	586.8
961.926	590.4
962.982	596.4
964.038	583.6
965.094	586.6
966.149	594.6
967.204	600.2
968.258	595
969.312	564.2
970.366	603.4
971.42	601.4
972.473	602.8
973.527	610
974.58	599.6
975.631	614.4
976.684	615.2
977.736	607.4
978.787	617.4
979.839	585.8
980.89	578.4
981.94	588.4
982.991	609.2
984.041	592.6
985.091	613.8
986.141	598.4
987.19	605.8
988.239	584.4
989.288	593.2
990.336	605.6
991.384	597.8
992.432	610.8
993.48	606.6
994.527	606.6
995.574	612.6
996.62	577.6
997.666	611
998.713	611.4
999.759	603.4
1000.8	598.2
1001.85	589.6
1002.89	585.6
1003.94	610.6
1004.98	603.4
1006.03	605.6
1007.07	609
1008.11	608.8
1009.16	594.2
1010.2	606.2
1011.24	584.2
1012.29	601.4
1013.33	595.8
1014.37	578.6
1015.41	580.2
1016.45	591.4
1017.49	597.6
1018.53	583.6
1019.57	603.6
1020.61	581.2
1021.65	583.6
1022.69	587
1023.73	582.6
1024.77	578.2
1025.81	580
1026.85	579.8
1027.88	572
1028.92	586.8
1029.96	587.2
1031	580.8
1032.03	583
1033.07	587.2
1034.1	580.6
1035.14	573.6
1036.18	599.2
1037.21	575
1038.25	590.6
1039.28	577
1040.32	576.8
1041.35	577.6
1042.38	573.2
1043.42	578.2
1044.45	561.2
1045.48	571.8
1046.52	556.8
1047.55	572.6
1048.58	576.4
1049.61	578.4
1050.64	580.4
1051.67	575.4
1052.71	569.2
1053.74	566.8
1054.77	548.6
1055.8	573.6
1056.83	567
1057.85	569.6
1058.88	581.4
1059.91	579
1060.94	577.8
1061.97	575
1063	562.6
1064.03	573.4
1065.05	557.6
1066.08	562.4
1067.11	592.8
1068.13	571
1069.16	570.4
1070.19	564.2
1071.21	572.6
1072.24	567.2
1073.26	575.8
1074.29	562.8
1075.31	580
1076.34	572.6
1077.36	564.6
1078.38	563.2
1079.41	568.6
1080.43	587
1081.45	585
1082.47	550.8
1083.5	564.4
1084.52	574
1085.54	555.6
1086.56	579.8
1087.58	564.8
1088.6	580.8
1089.62	571
1090.64	555
1091.66	552.2
1092.68	541.8
1093.7	554
1094.72	559.2
1095.74	571.8
1096.76	555.4
1097.78	566.2
1098.79	573
1099.81	552.8
1100.83	552.4
1101.85	569
1102.86	558.8
1103.88	569
1104.9	546.2
1105.91	561.4
1106.93	547.2
1107.94	537.8
1108.96	546.4
1109.97	552.2
1110.99	559.6
1112	556.2
1113.01	555.4
1114.03	562.2
1115.04	556.6
1116.05	568.6
1117.07	545.4
1118.08	563
1119.09	555.8
1120.1	560.2
1121.11	552.2
1122.13	536
1123.14	549.4
1124.15	547
1125.16	542.6
1126.17	551.8
1127.18	541.4
1128.19	547.4
1129.2	542.6
1130.2	531
1131.21	543.8
1132.22	536.6
1133.23	556.8
1134.24	554.6
1135.25	544.2
1136.25	544.6
1137.26	550
1138.27	560.6
1139.27	541.4
1140.28	541.4
1141.28	539.2
1142.29	557.8
1143.29	536
1144.3	553.6
1145.3	548
1146.31	546.6
1147.31	545.4
1148.32	542
1149.32	552.438
1150.32	542.094
1151.33	543.829
1152.33	541.047
1153.33	543.719
1154.33	535.646
1155.33	539.774
1156.34	540.155
1157.34	564.638
1158.34	544.75
1159.34	541.881
1160.34	536.48
1161.34	536.015
1162.34	548.247
1163.34	543.729
1164.34	557.738
1165.34	525.108
1166.33	533.834
1167.33	546.246
1168.33	545.46
1169.33	547.922
1170.33	535.974
1171.32	546.215
1172.32	545.692
1173.32	538.973
1174.31	546.293
1175.31	551.768
1176.31	536.131
1177.3	531.299
1178.3	544.246
1179.29	535.264
1180.29	536.233
1181.28	558.036
1182.27	545.177
1183.27	533.361
1184.26	520.753
1185.25	545.754
1186.25	539.482
1187.24	548.088
1188.23	538.529
1189.22	545.521
1190.22	545.332
1191.21	530.725
1192.2	533.242
1193.19	538.825
1194.18	516.092
1195.17	534.262
1196.16	539.054
1197.15	533.794
1198.14	529.119
1199.13	534.502
1200.12	534.662
1201.11	527.086
1202.09	532.905
1203.08	540.874
1204.07	536.854
1205.06	538.637
1206.04	518.251
1207.03	535.611
1208.02	517.539
1209	532.986
1209.99	534.584
1210.98	539.953
1211.96	536.599
1212.95	522.627
1213.93	541.489
1214.92	532.792
1215.9	529.675
1216.89	532.745
1217.87	533.743
1218.85	528.589
1219.84	524.698
1220.82	527.935
1221.8	535.701
1222.78	533.756
1223.77	523.818
1224.75	529.588
1225.73	538.65
1226.71	542.384
1227.69	527.994
1228.67	527.582
1229.65	532.757
1230.63	533.915
1231.61	533.031
1232.59	533.429
1233.57	536.629
1234.55	525.915
1235.53	532.912
1236.51	534.923
1237.49	533.729
1238.46	530.758
1239.44	535.745
1240.42	531.781
1241.4	546.23
1242.37	538.045
1243.35	531.366
1244.32	544.71
1245.3	548.313
1246.28	533.271
1247.25	532.497
1248.23	531.87
1249.2	524.503
1250.18	525.035
1251.15	531.706
1252.12	531.28
1252.72	527.4
1253.73	525.2
1254.74	543.6
1255.75	554.2
1256.75	543.4
1257.76	533.6
1258.77	523.6
1259.78	523.8
1260.79	526.4
1261.79	532.6
1262.8	537
1263.81	532.8
1264.81	525.8
1265.82	525
1266.82	534.8
1267.83	536.8
1268.83	523.4
1269.84	514
1270.84	523.6
1271.85	509.6
1272.85	524.8
1273.86	522.4
1274.86	509.6
1275.86	509.8
1276.87	526
1277.87	510.8
1278.87	515.6
1279.88	497
1280.88	520.8
1281.88	515.6
1282.88	521.4
1283.88	495.6
1284.88	505.6
1285.88	505.2
1286.89	517.6
1287.89	512.8
1288.89	513
1289.89	510.6
1290.89	504.4
1291.89	510.2
1292.88	499
1293.88	523.2
1294.88	529.4
1295.88	511
1296.88	528
1297.88	502.8
1298.88	518.8
1299.87	519.6
1300.87	510.4
1301.87	504.6
1302.86	523.2
1303.86	524.6
1304.86	492.6
1305.85	516.8
1306.85	505.8
1307.85	503.6
1308.84	496.8
1309.84	510.4
1310.83	511.6
1311.83	510.2
1312.82	503.2
1313.81	510
1314.81	509.4
1315.8	503.2
1316.8	512.2
1317.79	514.6
1318.78	508.8
1319.77	492.2
1320.77	491.2
1321.76	508.2
1322.75	500.6
1323.74	509
1324.73	501.6
1325.72	491.8
1326.72	492.4
1327.71	515.8
1328.7	498.6
1329.69	487.6
1330.68	505.2
1331.67	509.4
1332.66	505
1333.65	503.4
1334.63	497.6
1335.62	515.8
1336.61	504
1337.6	503.8
1338.59	500.4
1339.58	514.4
1340.56	489.4
1341.55	500.4
1342.54	498
1343.53	503.2
1344.51	486
1345.5	500.4
1346.48	500.2
1347.47	483.4
1348.45	485
1349.44	488
1350.43	499
1351.41	490.2
1352.4	469.2
1353.38	487.6
1354.36	500
1355.35	492
1356.33	488.2
1357.31	489.2
1358.3	479.4
1359.28	465
1360.26	485.6
1361.25	493.2
1362.23	476.2
1363.21	466.4
1364.19	477.4
1365.17	484
1366.15	462.6
1367.14	457.6
1368.12	478.6
1369.1	466
1370.08	462.6
1371.06	466.6
1372.04	490.4
1373.02	473.6
1373.99	494
1374.97	485.6
1375.95	482.8
1376.93	478.6
1377.91	472.2
1378.89	478.6
1379.86	466.8
1380.84	469.4
1381.82	482.6
1382.8	483
1383.77	465.6
1384.75	468
1385.73	466
1386.7	468
1387.68	453
1388.65	471
1389.63	469
1390.6	462.4
1391.58	460.6
1392.55	467.6
1393.53	462.2
1394.5	467.6
1395.48	447.4
1396.45	469.6
1397.42	451.6
1398.4	474
1399.37	452.2
1400.34	460
1401.31	451.2
1402.29	479.2
1403.26	454.2
1404.23	449.4
1405.2	475.8
1406.17	470.2
1407.14	475.6
1408.11	474.4
1409.08	457
1410.05	450.6
1411.02	456
1411.99	462.2
1412.96	458
1413.93	461.6
1414.9	463
1415.87	449.2
1416.84	468.2
1417.81	475.6
1418.78	462.8
1419.74	457.4
1420.71	459
1421.68	455.6
1422.65	463.2
1423.61	445.6
1424.58	459.8
1425.55	460.2
1426.51	455.4
1427.48	450.6
1428.44	464.2
1429.41	452.2
1430.37	439.6
1431.34	461.4
1432.3	452.4
1433.27	444.2
1434.23	447.2
1435.2	447.4
1436.16	439.2
1437.12	452.6
1438.09	448.6
1439.05	452.8
1440.01	446.6
1440.97	429.8
1441.94	447.8
1442.9	455.2
1443.86	425.6
1444.82	428
1445.78	438.2
1446.74	451.8
1447.7	428.2
1448.67	448.4
1449.63	436.4
1450.59	433
1451.55	430.6
1452.5	441.2
1453.46	418
1454.42	422
1455.38	437.6
1456.34	459.2
1457.3	428.6
1458.26	437.2
1459.21	443.6
1460.17	445.6
1461.13	438.2
1462.09	430.4
1463.04	457.8
1464	455
1464.96	430.4
1465.91	421
1466.87	436.6
1467.82	431.6
1468.78	420.2
1469.73	428.6
1470.69	443.4
1471.64	416.2
1472.6	405.2
1473.55	442
1474.51	417
1475.46	426.8
1476.41	411.2
1477.37	425.6
1478.32	428.6
1479.27	408.6
1480.23	418
1481.18	437.8
1482.13	433.2
1483.08	433
1484.03	428.4
1484.98	407.4
1485.94	414.6
1486.89	410.6
1487.84	431.4
1488.79	424.6
1489.74	427.8
1490.69	433.8
1491.64	429.2
1492.59	437.4
1493.54	408
1494.48	424.6
1495.43	432.8
1496.38	428.4
1497.33	438.8
1498.28	437.6
1499.23	444
1500.17	418.2
1501.12	439.4
1502.07	442.4
1503.01	430
1503.96	428.2
1504.91	418.4
1505.85	431.6
1506.8	407.6
1507.74	423.6
1508.69	411
1509.64	407.4
1510.58	409.8
1511.52	415.2
1512.47	424.4
1513.41	410.4
1514.36	407.8
1515.3	418.4
1516.24	403.6
1517.19	389.6
1518.13	396.4
1519.07	422.4
1520.01	410.8
1520.96	414.6
1521.9	406.6
1522.84	417
1523.78	401.2
1524.72	417.4
1525.66	415
1526.6	413.4
1527.55	388.4
1528.49	415
1529.43	413
1530.37	423.2
1531.3	406.2
1532.24	407.4
1533.18	414.2
1534.12	387.6
1535.06	416.4
1536	410.6
1536.94	399
1537.88	387.8
1538.81	404.8
1539.75	406.6
1540.69	402.4
1541.62	408.4
1542.56	385.2
1543.5	391.6
1544.43	408
1545.37	387.8
1546.3	397
1547.24	389.8
1548.18	394.2
1549.11	407.4
1550.05	397.8
1550.98	397.4
1551.91	392.4
1552.85	392.8
1553.78	380.6
1554.72	390.4
1555.65	401
1556.58	377.8
1557.51	402
1558.45	386.8
1559.38	385
1560.31	397
1561.24	390.6
1562.17	394.4
1563.11	400
1564.04	404
1564.97	384.4
1565.9	392
1566.83	396.2
1567.76	389.6
1568.69	381.8
1569.62	387.4
1570.55	391.4
1571.48	373.6
1572.41	387.2
1573.34	397.2
1574.26	402.2
1575.19	386
1576.12	398.6
1577.05	382.8
1577.98	401
1578.9	398.4
1579.83	376
1580.76	389.8
1581.68	368.4
1582.61	399.2
1583.54	375.8
1584.46	372.2
1585.39	379.8
1586.31	400.2
1587.24	371
1588.16	391
1589.09	357.2
1590.01	386.8
1590.94	383.4
1591.86	369.2
1592.78	384.6
1593.71	379.4
1594.63	388
1595.55	399.8
1596.48	380.4
1597.4	376.8
1598.32	381
1599.24	386.6
1600.17	363
1601.09	388.6
1602.01	364.2
1602.93	379.6
1603.85	376.8
1604.77	366
1605.69	377.8
1606.61	372.2
1607.53	359.8
1608.45	374
1609.37	375.6
1610.29	359.2
1611.21	369.8
1612.13	375.4
1613.05	354.4
1613.96	379.2
1614.88	351.6
1615.8	354.2
1616.72	350.2
1617.63	366
1618.55	357.6
1619.47	363.6
1620.38	357.2
1621.3	355
1622.22	357
1623.13	370.2
1624.05	356.6
1624.96	344.8
1625.88	360.2
1626.79	370.4
1627.71	372.8
1628.62	356.2
1629.54	344.8
1630.45	364.6
1631.37	355.8
1632.28	358.8
1633.19	359
1634.1	368.4
1635.02	363.8
1635.93	361.2
1636.84	349.6
1637.75	359
1638.67	343.8
1639.58	364.2
1640.49	351
1641.4	343
1642.31	341.6
1643.22	357.6
1644.13	353
1645.04	339.6
1645.95	370.2
1646.86	339.2
1647.77	359.4
1648.68	350
1649.59	351.2
1650.5	363.2
1651.41	352.6
1652.31	343
1653.22	334.8
1654.13	347.4
1655.04	353
1655.95	357.4
1656.85	352.8
1657.76	349.2
1658.67	354.6
1659.57	343.6
1660.48	348.8
1661.38	348.8
1662.29	347
1663.2	346.6
1664.1	347.4
1665.01	343.4
1665.91	339.4
1666.81	363
1667.72	345.2
1668.62	343
1669.53	350.4
1670.43	352.6
1671.33	351.2
1672.24	358
1673.14	357.8
1674.04	347.4
1674.94	354
1675.85	341.8
1676.75	355.8
1677.65	341.8
1678.55	369.6
1679.45	333.8
1680.35	353.6
1681.25	345.6
1682.15	350.8
1683.05	344.4
1683.95	337.4
1684.85	344.2
1685.75	349.2
1686.65	335.2
1687.55	345.6
1688.45	341
1689.35	343.2
1690.25	341.6
1691.15	334.8
1692.04	356.4
1692.94	339.8
1693.84	330.2
1694.74	320.6
1695.63	334.6
1696.53	329.8
1697.43	347
1698.32	338.6
1699.22	342.6
1700.11	323.2
1701.01	332.2
1701.9	331.4
1702.8	339.2
1703.69	336
1704.59	334.4
1705.48	335.8
1706.38	357.4
1707.27	327.8
1708.16	317.6
1709.06	337.6
1709.95	328.8
1710.84	328
1711.74	328.4
1712.63	329.6
1713.52	326.2
1714.41	341.4
1715.3	333.4
1716.2	324.6
1717.09	328.2
1717.98	327.2
1718.87	333.6
1719.76	314.8
1720.65	317.4
1721.54	332.2
1722.43	328.8
1723.32	318.2
1724.21	323.2
1725.1	326
1725.99	325.8
1726.88	332.8
1727.76	322
1728.65	331
1729.54	305.8
1730.43	327.2
1731.31	315.4
1732.2	315.4
1733.09	318.6
1733.98	319.2
1734.86	324
1735.75	318.6
1736.63	324
1737.52	325.6
1738.41	322.4
1739.29	314
1740.18	315.8
1741.06	330
1741.95	316
1742.83	321.4
1743.72	327.6
1744.6	327.6
1745.48	316
1746.37	306.6
1747.25	328.4
1748.13	325.4
1749.02	304
1749.9	302.8
1750.78	330.8
1751.66	312.8
1752.54	303.8
1753.43	321.3
1754.31	325.8
1755.19	298.8
1756.07	311.4
1756.95	321.2
1757.83	308.2
1758.71	304
1759.59	304.4
1760.47	280
1761.35	310.4
1762.23	289
1763.11	309
1763.99	300.4
1764.87	318.6
1765.74	315
1766.62	312.2
1767.5	315.6
1768.38	307.2
1769.25	318.2
1770.13	320.2
1771.01	316.6
1771.89	292.2
1772.76	282.2
1773.64	297.2
1774.51	288.2
1775.39	310
1776.27	298.6
1777.14	308.2
1778.02	285
1778.89	300.6
1779.76	310.8
1780.64	292.4
1781.51	293
1782.39	302
1783.26	291.2
1784.13	292.6
1785.01	293
1785.88	294.8
1786.75	292.6
1787.63	289.4
1788.5	286.6
1789.37	294.6
1790.24	291.4
1791.11	275.6
1791.98	295.4
1792.86	304.2
1793.73	278.8
1794.6	294
1795.47	297.2
1796.34	296.8
1797.21	276.2
1798.08	296.4
1798.95	299.4
1799.82	293.8
1800.68	269.4
1801.55	283.6
1802.42	298.8
1803.29	288.8
1804.16	274.4
1805.03	284.4
1805.89	294.6
1806.76	275.4
1807.63	283.6
1808.49	288.8
1809.36	278.4
1810.23	274.6
1811.09	286.4
1811.96	291.2
1812.83	292
1813.69	271
1814.56	295
1815.42	279.2
1816.29	274.8
1817.15	279
1818.02	283.8
1818.88	284.2
1819.74	275.6
1820.61	278.2
1821.47	291.4
1822.33	278.8
1823.2	278.4
1824.06	273
1824.92	276
1825.78	274.8
1826.65	283.2
1827.51	285.4
1828.37	272.6
1829.23	276.2
1830.09	282.2
1830.95	274
1831.81	291
1832.67	267.2
1833.53	268.6
1834.39	279.8
1835.25	270
1836.11	291.4
1836.97	271.2
1837.83	267.8
1838.69	270.4
1839.55	262.2
1840.41	278.6
1841.26	277.4
1842.12	259
1842.98	273
1843.84	261.6
1844.69	259.8
1845.55	274.6
1846.41	257
1847.26	271.6
1848.12	276.2
1848.98	282.2
1849.83	270.4
1850.69	251.6
1851.54	274.6
1852.4	278.6
1853.25	260.4
1854.11	257
1854.96	278.8
1855.82	291.2
1856.67	264.2
1857.52	274
1858.38	267.2
1859.23	267
1860.08	270.2
1860.93	264
1861.79	264.8
1862.64	262
1863.49	259.8
1864.34	277.8
1865.19	266.8
1866.05	254.2
1866.9	255.8
1867.75	269.4
1868.6	279.6
1869.45	255.8
1870.3	261.8
1871.15	279.4
1872	260.8
1872.85	264.8
1873.7	263
1874.55	261
1875.4	265.6
1876.24	255.4
1877.09	275.2
1877.94	254
1878.79	247.4
1879.64	266.2
1880.48	250.4
1881.33	240.4
1882.18	253.6
1883.02	251.8
1883.87	262.8
1884.72	250.8
1885.56	256.8
1886.41	257.2
1887.25	249.4
1888.1	257.6
1888.94	248
1889.79	250.4
1890.63	253.8
1891.48	237.2
1892.32	266.6
1893.17	255.6
1894.01	244.6
1894.85	246.2
1895.7	256.8
1896.54	251.4
1897.38	241.6
1898.23	248.4
1899.07	272.2
1899.91	243
1900.75	242.6
1901.59	247.6
1902.44	248.4
1903.28	246.2
1904.12	254.4
1904.96	237
1905.8	255
1906.64	249.8
1907.48	236.6
1908.32	239.8
1909.16	238.6
1910	249.6
1910.84	248.8
1911.68	250
1912.51	252.4
1913.35	237.2
1914.19	239.8
1915.03	242.8
1915.87	245.6
1916.7	247.2
1917.54	236.2
1918.38	237
1919.21	239.6
1920.05	245.4
1920.89	242.2
1921.72	235.8
1922.56	227.8
1923.4	246.8
1924.23	242.2
1925.07	241.6
1925.9	236.2
1926.74	237.4
1927.57	240
1928.41	211.2
1929.24	237
1930.07	240.2
1930.91	220
1931.74	231
1932.57	235.2
1933.41	239
1934.24	234.8
1935.07	240.2
1935.9	224.8
1936.74	222.8
1937.57	222
1938.4	246.6
1939.23	235
1940.06	227.6
1940.89	225.6
1941.72	217.8
1942.55	242.4
1943.38	232.2
1944.21	219.6
1945.04	217.4
1945.87	219.4
1946.7	238
1947.53	236.4
1948.36	235.2
1949.19	216.6
1950.02	232.4
1950.84	222.2
1951.67	228.2
1952.5	225.4
1953.33	214.6
1954.15	231.8
1954.98	232.6
1955.81	236.2
1956.64	225.8
1957.46	218.8
1958.29	214.2
1959.11	231
1959.94	220.6
1960.76	224.4
1961.59	228
1962.41	231.4
1963.24	223.2
1964.06	217.4
1964.89	213.6
1965.71	225.4
1966.53	233
1967.36	224
1968.18	218.8
1969	212.6
1969.83	219.4
1970.65	217.8
1971.47	216.4
1972.3	208.4
1973.12	201
1973.94	218.4
1974.76	216.2
1975.58	220.2
1976.4	217
1977.22	216
1978.04	202
1978.86	220.4
1979.68	220.8
1980.5	217
1981.32	210.2
1982.14	217.4
1982.96	219.6
1983.78	222.4
1984.6	205.2
1985.42	208.4
1986.24	205.6
1987.06	209
1987.87	211.8
1988.69	218.4
1989.51	221.2
1990.32	190.2
1991.14	209.4
1991.96	207
1992.78	226.2
1993.59	204.8
1994.41	209.6
1995.22	223.8
1996.04	206
1996.85	206.4
1997.67	205.827
1998.48	204.24
1999.3	217.831
2000.11	200.367
2000.93	195.61
2001.74	206.954
2002.56	208.293
2003.37	219.623
2004.18	200.188
2004.99	195.48
2005.81	205.208
2006.62	207.964
2007.43	206.8
2008.25	204.198
2009.06	203.66
2009.87	209.096
2010.68	206.319
2011.49	198.921
2012.3	210.611
2013.11	211.37
2013.92	198.708
2014.73	204.907
2015.54	209.563
2016.35	198.242
2017.16	201.918
2017.97	198.574
2018.78	201.995
2019.59	208.031
2020.4	196.531
2021.21	201.143
2022.02	189.256
2022.83	206.472
2023.63	202.518
2024.44	201.117
2025.25	211.311
2026.06	201.837
2026.86	203.929
2027.67	204.666
2028.48	195.134
2029.28	193.714
2030.09	207.862
2030.89	208.554
2031.7	196.438
2032.5	203.441
2033.31	199.485
2034.11	197.915
2034.92	200.218
2035.72	197.551
2036.53	197.242
2037.33	195.724
2038.14	201.449
2038.94	202.237
2039.74	201.256
2040.55	204.928
2041.35	197.645
2042.15	218.337
2042.95	196.376
2043.76	198.288
2044.56	200.025
2045.36	198.737
2046.16	187.661
2046.96	186.077
2047.76	196.401
2048.56	199.24
2049.37	198.597
2050.17	196.662
2050.97	201.364
2051.77	195.141
2052.57	190.772
2053.36	192.756
2054.16	194.94
2054.96	192.476
2055.76	196.312
2056.56	198.736
2057.36	197.047
2058.16	195.54
2058.96	205.857
2059.75	201.351
2060.55	204.106
2061.35	196.343
2062.14	202.1
2062.94	207.594
2063.74	197.064
2064.53	185.88
2065.33	198.852
2066.13	193.448
2066.92	189.874
2067.72	193.854
2068.51	199.421
2069.31	198.015
2070.1	187.679
2070.9	193.048
2071.69	197.083
2072.49	194.925
2073.28	193.507
2074.07	184.71
2074.87	196.177
2075.66	187.271
2076.45	187.333
2077.25	184.805
2078.04	197.412
2078.83	189.171
2079.62	198.215
2080.41	200.358
2081.21	192.128
2081.38	190
2082.2	196.8
2083.03	194.4
2083.86	197.4
2084.68	193.8
2085.51	191.4
2086.34	184
2087.16	186.2
2087.99	191.2
2088.81	196.8
2089.64	198.2
2090.46	203.8
2091.29	194.2
2092.11	185.4
2092.94	190.2
2093.76	181.6
2094.58	206.8
2095.41	181.6
2096.23	186.8
2097.06	187
2097.88	198.6
2098.7	190.2
2099.53	183.4
2100.35	193.8
2101.17	192.6
2101.99	194
2102.81	181
2103.64	195
2104.46	200.6
2105.28	185
2106.1	184.4
2106.92	183.4
2107.74	184.6
2108.56	203.8
2109.38	174.8
2110.2	190
2111.03	190
2111.84	185.6
2112.66	186.2
2113.48	192.4
2114.3	190.6
2115.12	186.2
2115.94	182.6
2116.76	185.2
2117.58	187.2
2118.4	178
2119.22	183.4
2120.03	174.4
2120.85	184.6
2121.67	189.2
2122.49	182
2123.3	171.6
2124.12	170
2124.94	172.8
2125.76	185.2
2126.57	174
2127.39	176.2
2128.2	181.4
2129.02	174.2
2129.83	177
2130.65	174
2131.47	187.2
2132.28	181
2133.1	174.6
2133.91	177.6
2134.73	173.2
2135.54	183
2136.35	173.4
2137.17	183.8
2137.98	176.2
2138.79	165.6
2139.61	148.4
2140.42	184.2
2141.23	157
2142.05	160
2142.86	165.4
2143.67	184.4
2144.48	185
2145.3	169
2146.11	164.2
2146.92	179
2147.73	177.4
2148.54	182
2149.35	172.4
2150.16	179.4
2150.97	185
2151.79	171.4
2152.6	187.2
2153.41	175.6
2154.22	167.2
2155.02	165.6
2155.83	176.4
2156.64	153.2
2157.45	166.2
2158.26	173.8
2159.07	164
2159.88	161.8
2160.69	172.2
2161.5	173.8
2162.3	171
2163.11	167
2163.92	163.4
2164.73	157.2
2165.53	165.4
2166.34	153.8
2167.15	173.4
2167.95	142.6
2168.76	166
2169.57	156
2170.37	167.8
2171.18	152.8
2171.98	162.8
2172.79	164.2
2173.59	168.2
2174.4	133.6
2175.2	152.4
2176.01	156.8
2176.81	152.2
2177.62	152.4
2178.42	167
2179.22	163
2180.03	162.6
2180.83	158
2181.63	163
2182.44	156.8
2183.24	149.6
2184.04	147.8
2184.85	154.2
2185.65	151.6
2186.45	155.2
2187.25	134
2188.05	150.4
2188.86	146.2
2189.66	149.4
2190.46	157.2
2191.26	140.8
2192.06	136.4
2192.86	150
2193.66	153.8
2194.46	130.6
2195.26	148.4
2196.06	152.8
2196.86	147.8
2197.66	140.8
2198.46	146.6
2199.26	148.4
2200.06	139.6
2200.85	135.6
2201.65	147.8
2202.45	145.4
2203.25	147.6
2204.05	145.2
2204.84	144.6
2205.64	132
2206.44	149.2
2207.24	133.4
2208.03	144.2
2208.83	152.4
2209.63	141.6
2210.42	148
2211.22	149.6
2212.01	136
2212.81	135.8
2213.61	143.8
2214.4	142.4
2215.2	144.2
2215.99	155.6
2216.79	141.2
2217.58	147.6
2218.37	129.6
2219.17	134.6
2219.96	130.6
2220.76	136.8
2221.55	140
2222.34	146
2223.14	139.2
2223.93	132
2224.72	134.6
2225.51	127.4
2226.31	136.4
2227.1	128.6
2227.89	137.8
2228.68	145.8
2229.47	130.2
2230.27	130.4
2231.06	133.8
2231.85	132.4
2232.64	126.8
2233.43	130.6
2234.22	132.2
2235.01	132.4
2235.8	115
2236.59	127.6
2237.38	133.2
2238.17	127.2
2238.96	125.4
2239.75	139.4
2240.54	133.2
2241.33	127
2242.11	123.6
2242.9	127.2
2243.69	129.8
2244.48	126.8
2245.27	120
2246.05	131.4
2246.84	124.6
2247.63	124.6
2248.41	122
2249.2	120.2
2249.99	125.2
2250.77	123.6
2251.56	124.8
2252.35	118.4
2253.13	127.2
2253.92	134.6
2254.7	121.2
2255.49	114
2256.27	126.4
2257.06	124.4
2257.84	123.4
2258.63	127.8
2259.41	122.4
2260.2	119.6
2260.98	115.6
2261.76	114.4
2262.55	116.8
2263.33	128.8
2264.11	131
2264.9	120.6
2265.68	139.4
2266.46	112.4
2267.24	130.2
2268.03	118.2
2268.81	125.2
2269.59	121.2
2270.37	128.6
2271.15	124.2
2271.93	129.8
2272.71	116.4
2273.5	113
2274.28	116.6
2275.06	114.4
2275.84	119.8
2276.62	111.4
2277.4	126.2
2278.18	115
2278.96	108.8
2279.73	114.6
2280.51	113.4
2281.29	126.8
2282.07	117.8
2282.85	108.4
2283.63	112.4
2284.41	108.6
2285.18	115.8
2285.96	114.4
2286.74	110.2
2287.52	115.8
2288.29	120.2
2289.07	117.2
2289.85	114.4
2290.62	117.6
2291.4	119.6
2292.18	106.4
2292.95	107.6
2293.73	111.6
2294.5	115.2
2295.28	105.6
2296.05	109.4
2296.83	114.2
2297.6	104.2
2298.38	98.2
2299.15	111.8
2299.93	106
2300.7	111.8
2301.48	105.8
2302.25	123.6
2303.02	112
2303.8	113.8
2304.57	108.6
2305.34	108.4
2306.11	102.8
2306.89	110.4
2307.66	105.8
2308.43	119
2309.2	107.2
2309.97	114.4
2310.75	115.4
2311.52	105.6
2312.29	93.8
2313.06	102.8
2313.83	101
2314.6	98
2315.37	106.8
2316.14	110.8
2316.91	93.8
2317.68	102.4
2318.45	110.6
2319.22	115.2
2319.99	96.4
2320.76	115.4
2321.53	109.6
2322.3	111.6
2323.06	100
2323.83	96.6
2324.6	114.2
2325.37	105.4
2326.14	101.2
2326.9	110.2
2327.67	104.4
2328.44	102.2
2329.21	102.4
2329.97	108.6
2330.74	108.8
2331.5	104.6
2332.27	108.4
2333.04	105.2
2333.8	88.6
2334.57	87.8
2335.33	105.2
2336.1	93.6
2336.86	100.2
2337.63	83.4
2338.39	96.2
2339.16	92.8
2339.92	101.2
2340.69	93
2341.45	102.6
2342.21	101.6
2342.98	92.2
2343.74	101.4
2344.5	98.8
2345.27	93.8
2346.03	88.4
2346.79	98
2347.55	91.4
2348.31	91.2
2349.08	91.2
2349.84	88.4
2350.6	91.4
2351.36	91.6
2352.12	94.2
2352.88	98.6
2353.64	95.4
2354.41	96.8
2355.17	93.4
2355.93	85.8
2356.69	96.8
2357.45	80.2
2358.21	89.8
2358.96	94.6
2359.72	91.2
2360.48	84.6
2361.24	83.6
2362	86.4
2362.76	69.6
2363.52	94.8
2364.28	85.6
2365.03	88.4
2365.79	90.2
2366.55	85.6
2367.31	88.6
2368.06	88.2
2368.82	91.2
2369.58	95
2370.33	89.6
2371.09	92.4
2371.85	82.8
2372.6	94.4
2373.36	79.2
2374.11	88
2374.87	85.2
2375.62	93.6
2376.38	97.4
2377.13	72.8
2377.89	88.8
2378.64	86.2
2379.4	78
2380.15	80
2380.9	94.4
2381.66	94.2
2382.41	90.6
2383.16	99.8
2383.92	86.2
2384.67	79.8
2385.42	96.2
2386.18	96.6
2386.93	79.6
2387.68	87
2388.43	81.2
2389.18	84
2389.94	85.8
2390.69	77.8
2391.44	80.4
2392.19	85.4
2392.94	86.4
2393.69	92.6
2394.44	88.6
2395.19	84.4
2395.94	84.2
2396.69	85.2
2397.44	86.8
2398.19	74.8
2398.94	81.6
2399.69	78.6
2400.44	80.6
2401.19	71.4
2401.93	83.8
2402.68	78.6
2403.43	89
2404.18	75.4
2404.93	81.6
2405.67	73.6
2406.42	81.2
2407.17	81.6
2407.92	69.8
2408.66	76.4
2409.41	55.2
2410.16	84.2
2410.9	84.6
2411.65	68
2412.39	85.8
2413.14	84.4
2413.89	73.4
2414.63	74.4
2415.38	65.8
2416.12	68.6
2416.86	77.8
2417.61	75.2
2418.35	88.6
2419.1	77.8
2419.84	73.2
2420.59	72.4
2421.33	78.8
2422.07	69.4
2422.82	76
2423.56	78.2
2424.3	76.8
2425.04	78.6
2425.79	68.8
2426.53	86.4
2427.27	80.6
2428.01	77.2
2428.75	72.4
2429.5	75.4
2430.24	73
2430.98	79.6
2431.72	82
2432.46	65.2
2433.2	65
2433.94	80.6
2434.68	77.4
2435.42	74.8
2436.16	73
2436.9	72.6
2437.64	74.8
2438.38	58.2
2439.12	68
2439.86	74
2440.59	70.6
2441.33	65
2442.07	79
2442.81	73.8
2443.55	68.8
2444.28	65
2445.02	75
2445.76	65.8
2446.5	64.6
2447.23	72.6
2447.97	80
2448.71	58.2
2449.44	70
2450.18	58.2
2450.91	75.8
2451.65	74.2
2452.39	67.2
2453.12	70
2453.86	62
2454.59	65.2
2455.33	68.2
2456.06	73
2456.79	63
2457.53	64.6
2458.26	70.4
2459	66.4
2459.73	65.4
2460.46	46
2461.2	73.6
2461.93	66.8
2462.66	64.6
2463.4	74
2464.13	63.8
2464.86	64.8
2465.59	51.4
2466.32	64.6
2467.06	65.6
2467.79	60.6
2468.52	63
2469.25	68.2
2469.98	62.2
2470.71	48.4
2471.44	71
2472.17	71.4
2472.9	62
2473.63	67.8
2474.36	59.6
2475.09	64.4
2475.82	53.6
2476.55	66.2
2477.28	57.4
2478.01	59.8
2478.74	46.4
2479.47	63
2480.19	63
2480.92	56
2481.65	59.6
2482.38	48.8
2483.11	57.4
2483.83	55.2
2484.56	55
2485.29	59.8
2486.01	60.2
2486.74	57.8
2487.47	58.4
2488.19	61
2488.92	54.4
2489.65	59
2490.37	50
2491.1	58.2
2491.82	52.4
2492.55	69.4
2493.27	60.9
2494	48.4
2494.72	48
2495.45	57.2
2496.17	56.4
2496.89	56.6
2497.62	51.2
2498.34	59.8
2499.06	66.6
2499.79	56
2500.51	59.6
2501.23	52.2
2501.96	63.2
2502.68	39.4
2503.4	61.8
2504.12	58.4
2504.84	49
2505.57	47.2
2506.29	49.4
2507.01	50.6
2507.73	47.6
2508.45	50.6
2509.17	49
2509.89	57
2510.61	44.6
2511.33	58.8
2512.05	51.2
2512.77	41.4
2513.49	55.2
2514.21	50
2514.93	54.2
2515.65	52.6
2516.37	42.8
2517.09	45.8
2517.81	48.2
2518.52	44.4
2519.24	52.4
2519.96	57.8
2520.68	46.8
2521.4	49.4
2522.11	48.8
2522.83	62.8
2523.55	43.6
2524.26	43
2524.98	52
2525.7	50.4
2526.41	48
2527.13	50
2527.84	55.6
2528.56	47.8
2529.28	45.6
2529.99	55.4
2530.71	50.6
2531.42	35.6
2532.14	56.4
2532.85	47
2533.56	43.6
2534.28	45.4
2534.99	54.6
2535.71	47.2
2536.42	40.4
2537.13	46.2
2537.85	42.6
2538.56	52.6
2539.27	49.2
2539.98	45.4
2540.7	45
2541.41	44.4
2542.12	42.4
2542.83	46.2
2543.54	40.4
2544.26	51.8
2544.97	50.2
2545.68	63.2
2546.39	42.6
2547.1	43.8
2547.81	36.6
2548.52	45.8
2549.23	35.4
2549.94	47
2550.65	48.6
2551.36	50.6
2552.07	45.4
2552.78	43.8
2553.49	56.6
2554.2	36.6
2554.91	40.4
2555.61	27.4
2556.32	52.4
2557.03	40.6
2557.74	45.8
2558.45	40.2
2559.15	35.6
2559.86	37.2
2560.57	47.6
2561.27	42.4
2561.98	33.6
2562.69	36.2
2563.39	40.4
2564.1	48.6
2564.81	32.8
2565.51	36.6
2566.22	35.8
2566.92	40
2567.63	39.2
2568.33	31.8
2569.04	34.8
2569.74	45
2570.45	38
2571.15	34
2571.86	25.4
2572.56	42
2573.26	31.8
2573.97	44.2
2574.67	37
2575.37	40.6
2576.08	40.6
2576.78	42.4
2577.48	35.2
2578.19	39.6
2578.89	34.4
2579.59	41.4
2580.29	30.4
2580.99	34
2581.69	50.6
2582.4	32.6
2583.1	31.6
2583.8	41.8
2584.5	40.2
2585.2	30.4
2585.9	37
2586.6	42.6
2587.3	38
2588	35.6
2588.7	38
2589.4	45
2590.1	43.8
2590.8	34.8
2591.5	45.8
2592.19	29
2592.89	48.2
2593.59	34.4
2594.29	35.2
2594.99	38
2595.68	34.4
2596.38	43.4
2597.08	29.2
2597.78	35.6
2598.47	40.8
2599.17	41.6
2599.87	32.4
2600.56	40
2601.26	41
2601.96	33.4
2602.65	31.4
2603.35	33
2604.04	36.8
2604.74	46.8
2605.43	32.2
2606.13	30.6
2606.82	27.6
2607.52	27.2
2608.21	43.6
2608.91	28
2609.6	30.4
2610.29	22.4
2610.99	35.2
2611.68	38.8
2612.37	38.8
2613.07	37.6
2613.76	21.4
2614.45	28.4
2615.15	36.8
2615.84	32.4
2616.53	33.8
2617.22	32.2
2617.91	32.2
2618.6	24.4
2619.3	26.8
2619.99	38
2620.68	35.8
2621.37	32.2
2622.06	28.2
2622.75	31.2
2623.44	26.6
2624.13	33.4
2624.82	32.2
2625.51	15.8
2626.2	27.6
2626.89	38.8
2627.58	29.8
2628.27	32.4
2628.96	25.8
2629.64	33.2
2630.33	21
2631.02	30.6
2631.71	18.2
2632.4	26.6
2633.08	26.8
2633.77	25
2634.46	27.6
2635.15	36.8
2635.83	17.6
2636.52	26.8
2637.21	25.6
2637.89	25.4
2638.58	28.6
2639.26	19
2639.95	38.4
2640.64	19.4
2641.32	26.4
2642.01	23.4
2642.69	27.4
2643.38	31.4
2644.06	30.6
2644.75	26.8
2645.43	26
2646.11	33.2
2646.8	27.6
2647.48	31.2
2648.16	11.6
2648.85	23.2
2649.53	23.8
2650.21	32.8
2650.9	22.2
2651.58	28.2
2652.26	25.4
2652.94	11.2
2653.63	33
2654.31	16.6
2654.99	28.2
2655.67	20.2
2656.35	18.6
2657.03	16.8
2657.71	22.2
2658.39	14
2659.08	20.6
2659.76	31.6
2660.44	11.8
2661.12	24.2
2661.8	20.2
2662.48	27.2
2663.15	23.2
2663.83	23.8
2664.51	26
2665.19	16.6
2665.87	22
2666.55	22.2
2667.23	22.2
2667.91	8
2668.58	26.2
2669.26	20.6
2669.94	17.2
2670.62	24
2671.29	15.4
2671.97	16.2
2672.65	30
2673.32	28.4
2674	5.8
2674.68	19
2675.35	18.6
2676.03	16.6
2676.7	26.8
2677.38	25.2
2678.06	16.4
2678.73	25.8
2679.41	19.2
2680.08	29.8
2680.75	26.4
2681.43	17.6
2682.1	32.4
2682.78	-1.8
2683.45	17.6
2684.12	28.8
2684.8	33.6
2685.47	21.8
2686.14	14.4
2686.82	22
2687.49	18.2
2688.16	19.6
2688.83	10.4
2689.51	23.6
2690.18	21.8
2690.85	20.2
2691.52	24.6
2692.19	17.2
2692.86	18.4
2693.54	22.2489
2694.21	13.612
2694.88	15.1111
2695.55	12.0861
2696.22	10.1619
2696.89	15.169
2697.56	11.3109
2698.23	20.0367
2698.9	16.4563
2699.57	15.4273
2700.24	24.8762
2700.91	17.9145
2701.57	20.1385
2702.24	25.9845
2702.91	16.5019
2703.58	19.9594
2704.25	19.4152
2704.92	12.9756
2705.58	8.8987
2706.25	13.871
2706.92	14.5566
2707.58	16.0638
2708.25	18.7067
2708.92	17.3249
2709.59	16.3143
2710.25	18.6512
2710.92	15.3983
2711.58	24.016
2712.25	9.23236
2712.92	13.4516
2713.58	22.1249
2714.25	27.1558
2714.91	13.5949
2715.58	21.4683
2716.24	16.9995
2716.91	19.1953
2717.57	17.2839
2718.23	13.264
2718.9	16.514
2719.56	8.23635
2720.23	18.439
2720.89	13.3769
2721.55	19.6676
2722.22	11.9638
2722.88	22.2093
2723.54	17.6538
2724.2	20.634
2724.87	25.3863
2725.53	21.0333
2726.19	13.3977
2726.85	15.8018
2727.51	28.1873
2728.18	17.6976
2728.84	12.9301
2729.5	17.8187
2730.16	20.4756
2730.82	22.1718
2731.48	16.2011
2732.14	16.9815
2732.8	18.3596
2733.46	20.7236
2734.12	12.86
2734.78	19.5648
2735.44	22.4134
2736.1	18.5015
2736.76	18.6944
2737.42	20.3263
2738.07	13.4719
2738.73	17.7288
2739.39	17.0529
2740.05	17.0379
2740.71	13.3979
2741.37	19.4025
2742.02	19.2453
2742.68	20.1916
2743.34	15.9149
2743.99	18.8349
2744.65	21.5134
2745.31	16.8373
2745.96	13.3079
2746.62	19.6082
2747.28	22.62
2747.93	18.2379
2748.59	19.0436
2749.24	18.7986
2749.9	24.9527
2750.55	22.6098
2751.21	22.191
2751.86	22.7982
2752.52	21.3586
2753.17	19.7016
2753.83	21.5436
2754.48	25.554
2755.14	25.71
2755.79	23.2425
2756.44	23.6512
2757.1	24.7392
2757.75	26.3438
2758.4	27.1521
2759.05	23.9658
2759.71	25.3748
2760.36	22.3303
2761.01	24.5313
2761.66	21.081
2762.32	21.2885
2762.97	24.76
2763.63	25.8
2764.32	28.6
2765.01	26.8
2765.69	20.8
2766.38	21.6
2767.07	21.8
2767.75	35.2
2768.44	23.4
2769.12	19.8
2769.81	39.6
2770.49	32.2
2771.18	8.6
2771.87	15.6
2772.55	22.4
2773.24	16.6
2773.92	23.6
2774.6	19.6
2775.29	21.2
2775.97	15.2
2776.66	21.8
2777.34	24
2778.03	22.6
2778.71	16.8
2779.39	24
2780.08	31
2780.76	19.8
2781.44	25.2
2782.12	23.8
2782.81	23
2783.49	21.8
2784.17	24.2
2784.85	22.4
2785.54	31
2786.22	10.6
2786.9	28
2787.58	22.4
2788.26	14.2
2788.94	14.4
2789.63	27.8
2790.31	30.2
2790.99	17
2791.67	23.4
2792.35	17.8
2793.03	12
2793.71	16
2794.39	9.6
2795.07	23.2
2795.75	14.6
2796.43	18.4
2797.11	26.6
2797.79	22.2
2798.46	16.6
2799.14	26.4
2799.82	10.8
2800.5	18.4
2801.18	15
2801.86	23
2802.54	17.8
2803.21	27.2
2803.89	7.8
2804.57	17.2
2805.25	5.2
2805.92	11.4
2806.6	18.2
2807.28	25.8
2807.95	12.2
2808.63	14.6
2809.31	18.4
2809.98	17.6
2810.66	10.6
2811.34	20
2812.01	10.8
2812.69	21.8
2813.36	10
2814.04	19.8
2814.71	23.4
2815.39	12.2
2816.06	12.2
2816.74	24
2817.41	16
2818.09	7.8
2818.76	15.2
2819.44	18.6
2820.11	22.8
2820.78	15.8
2821.46	17.8
2822.13	25.6
2822.8	13.8
2823.48	11.6
2824.15	7.4
2824.82	13.2
2825.49	14
2826.17	9.2
2826.84	22
2827.51	14.4
2828.18	12.4
2828.86	18.2
2829.53	9.4
2830.2	8.8
2830.87	18
2831.54	3.6
2832.21	19
2832.88	6.8
2833.55	17.6
2834.22	5.4
2834.9	9.6
2835.56	11.2
2836.23	11
2836.91	11.2
2837.57	10.2
2838.24	-2.8
2838.91	19.4
2839.58	16.4
2840.25	-1.2
2840.92	6.8
2841.59	8.2
2842.26	2
2842.93	9
2843.6	9.6
2844.26	1.8
2844.93	-0.8
2845.6	3.2
2846.27	2.4
2846.93	5.6
2847.6	-2.4
2848.27	1
2848.94	10.2
2849.6	1
2850.27	-3.8
2850.94	4.4
2851.6	5.6
2852.27	-11
2852.94	6.4
2853.6	11.6
2854.27	1.2
2854.93	-3.8
2855.6	-0.8
2856.26	-0.6
2856.93	3.6
2857.59	6.8
2858.26	2.6
2858.92	4.8
2859.59	-6
2860.25	-8.2
2860.92	-2.8
2861.58	0.8
2862.24	-4.2
2862.91	2.2
2863.57	10
2864.23	2
2864.9	-7.8
2865.56	2.4
2866.22	-9.4
2866.89	-11.4
2867.55	0.4
2868.21	-1.4
2868.87	0.4
2869.54	-9.4
2870.2	-4.4
2870.86	-7.8
2871.52	3.2
2872.18	-1
2872.84	3.4
2873.51	-6.4
2874.17	-9.8
2874.83	-10
2875.49	2.6
2876.15	-2.4
2876.81	-4.6
2877.47	-4.8
2878.13	1.6
2878.79	-6.6
2879.45	-5
2880.11	2.4
2880.77	-15.6
2881.43	2.4
2882.09	-1.8
2882.75	-6.2
2883.4	-6.4
2884.06	-6.6
2884.72	-10.6
2885.38	-1.2
2886.04	-9.6
2886.7	-6
2887.35	-1.8
2888.01	-4.8
2888.67	-10.4
2889.33	-2.4
2889.98	2.4
2890.64	-6.4
2891.3	-4.8
2891.95	-1.6
2892.61	-9.2
2893.27	-10
2893.92	-5.4
2894.58	-7.6
2895.23	-15.8
2895.89	-12
2896.55	-14.2
2897.2	-6.8
2897.86	-12.2
2898.51	-12
2899.17	-1.8
2899.82	-3.4
2900.48	-16.4
2901.13	-5.6
2901.79	-8.6
2902.44	-14.2
2903.09	-20.2
2903.75	-10.8
2904.4	-7
2905.05	-6.4
2905.71	-19
2906.36	-6
2907.01	-18.6
2907.67	-10.4
2908.32	-9
2908.97	-4.6
2909.63	-6
2910.28	-19.8
2910.93	-3.4
2911.58	-0.2
2912.23	-10.4
2912.88	-19
2913.54	-6
2914.19	-14.6
2914.84	-15.8
2915.49	-11
2916.14	-3.6
2916.79	-16
2917.44	-8.6
2918.09	-13.4
2918.74	-7.8
2919.39	-16.8
2920.04	-11
2920.69	-11.6
2921.34	-11.8
2921.99	-12.2
2922.64	-8.2
2923.29	-17.6
2923.94	-13.4
2924.59	-7.2
2925.23	-7
2925.88	-8.6
2926.53	-19.6
2927.18	-21.2
2927.83	-7.6
2928.48	-7.8
2929.12	-23.8
2929.77	-9
2930.42	-8.8
2931.07	-26.6
2931.71	-0.8
2932.36	-7.6
2933.01	-4
2933.65	-14.4
2934.3	-9.8
2934.95	-8.8
2935.59	-13.6
2936.24	-13
2936.88	-5.2
2937.53	-15.4
2938.17	-19
2938.82	-17
2939.46	-9.8
2940.11	-11.6
2940.75	-11.8
2941.4	-19
2942.04	-15.6
2942.69	-18.2
2943.33	-13.4
2943.98	-2.4
2944.62	-9.2
2945.26	-19.8
2945.91	-16
2946.55	-14.6
2947.19	-16.6
2947.84	-14
2948.48	-15.2
2949.12	-9.6
2949.76	-16.6
2950.41	-22.2
2951.05	-16.8
2951.69	-11.8
2952.33	-30
2952.98	-6.4
2953.62	-13.6
2954.26	-23.4
2954.9	-19.4
2955.54	-7.8
2956.18	-29.2
2956.82	-16.6
2957.46	-23
2958.1	-7.6
2958.74	-19
2959.38	-24.2
2960.02	-14.6
2960.66	-22
2961.3	-15.4
2961.94	-11
2962.58	-12.8
2963.22	-8
2963.86	-16.2
2964.5	-13.6
2965.14	-18.8
2965.78	-13.8
2966.42	-15.8
2967.05	-5.8
2967.69	-11
2968.33	-16
2968.97	-19.8
2969.61	-18
2970.24	-15.6
2970.88	-24.2
2971.52	-23.6
2972.15	-11
2972.79	-20
2973.43	-28
2974.06	-10.8
2974.7	-20.2
2975.34	-27
2975.97	-18.8
2976.61	-16
2977.24	-19.6
2977.88	-20.4
2978.52	-14.2
2979.15	-11.6
2979.79	-17.2
2980.42	-28.8
2981.06	-16.2
2981.69	-13.6
2982.32	-24
2982.96	-20.6
2983.59	-16.8
2984.23	-18.8
2984.86	-24.6
2985.49	-19.8
2986.13	-8.2
2986.76	-18.6
2987.39	-32.8
2988.03	-14.2
2988.66	-14.6
2989.29	-20.6
2989.93	-19.4
2990.56	-18.8
2991.19	-15.8
2991.82	-26.2
2992.45	-17.6
2993.09	-16.8
2993.72	-14.8
2994.35	-21.4
2994.98	-19
2995.61	-15
2996.24	-24.6
2996.87	-21.6
2997.5	-24
2998.14	-21
2998.77	-25.6
2999.4	-20.2
3000.03	-14.4
3000.66	-15.4
3001.29	-33
3001.91	-16.4
3002.54	-20.4
3003.17	-30.8
3003.8	-24.6
3004.43	-11.6
3005.06	-18.2
3005.69	-27.8
3006.32	-20.8
3006.95	-16.4
3007.57	-18.4
3008.2	-27.4
3008.83	-9
3009.46	-18.8
3010.08	-32.8
3010.71	-17.6
3011.34	-14.2
3011.97	-16.2
3012.59	-27.2
3013.22	-13.2
3013.85	-10.6
3014.47	-23.6
3015.1	-24.4
3015.72	-16
3016.35	-21.4
3016.98	-31
3017.6	-20.2
3018.23	-29
3018.85	-28.8
3019.48	-21.2
3020.1	-13.8
3020.73	-14.2
3021.35	-42
3021.98	-29.6
3022.6	-7.4
3023.23	-28.6
3023.85	-22
3024.47	-18.6
3025.1	-25.6
3025.72	-20.2
3026.34	-35.2
3026.97	-15.8
3027.59	-11.6
3028.21	-23.8
3028.84	-15
3029.46	-8.2
3030.08	-22.8
3030.7	-21
3031.32	-20.6
3031.95	-15
3032.57	-27.4
3033.19	-14.6
3033.81	-17.4
3034.43	-7
3035.05	-33
3035.68	-7.4
3036.3	-6
3036.92	-23.4
3037.54	-34.2
3038.16	-19
3038.78	-18.2
3039.4	-26.2
3040.02	-22.4
3040.64	-18.2
3041.26	-11.8
3041.88	-31.2
3042.5	-27.6
3043.12	-7.8
3043.73	-22.4
3044.35	-29.6
3044.97	-18.4
3045.59	-32.2
3046.21	-26.4
3046.83	-24.2
3047.44	-29.2
3048.06	-21.8
3048.68	-27
3049.3	-23.2
3049.92	-18.4
3050.53	-30
3051.15	-27.4
3051.77	-21.8
3052.38	-25
3053	-32.4
3053.62	-17
3054.23	-23.6
3054.85	-11.6
3055.46	-34.8
3056.08	-20
3056.7	-20.6
3057.31	-26.4
3057.93	-30.4
3058.54	-20.6
3059.16	-24
3059.77	-34.8
3060.39	-32
3061	-15
3061.61	-12.2
3062.23	-28.6
3062.84	-33.4
3063.46	-20
3064.07	-17.6
3064.68	-29.2
3065.3	-25.8
3065.91	-25
3066.52	-30.2
3067.14	-29.6
3067.75	-25.2
3068.36	-15.2
3068.98	-24.8
3069.59	-25.2
3070.2	-17.8
3070.81	-32.4
3071.42	-30
3072.04	-18
3072.65	-25.8
3073.26	-35
3073.87	-23.8
3074.48	-21.8
3075.09	-28.4
3075.7	-22.6
3076.31	-11.4
3076.92	-19.6
3077.53	-24
3078.14	-17
3078.75	-19
3079.36	-27.6
3079.97	-33.6
3080.58	-24.2
3081.19	-17.6
3081.8	-17.4
3082.41	-27.4
3083.02	-20.4
3083.63	-26.8
3084.24	-21.8
3084.84	-19.8
3085.45	-30.2
3086.06	-25.6
3086.67	-35
3087.28	-30.6
3087.88	-21.2
3088.49	-23.8
3089.1	-30.6
3089.71	-20.2
3090.31	-27.6
3090.92	-32
3091.53	-27.8
3092.13	-19.6
3092.74	-22.2
3093.34	-35.8
3093.95	-26.8
3094.56	-16.2
3095.16	-28.2
3095.77	-24
3096.37	-26
3096.98	-15.6
3097.58	-26
3098.19	-19
3098.79	-26
3099.4	-32
3100	-37
3100.61	-24.2
3101.21	-25.2
3101.81	-23.2
3102.42	-25
3103.02	-22.4
3103.63	-20.4
3104.23	-31.4
3104.83	-24.4
3105.43	-21.1
3106.04	-22.2
3106.64	-31
3107.24	-23.6
3107.85	-14.6
3108.45	-25.2
3109.05	-19.8
3109.65	-18.4
3110.25	-23.6
3110.86	-32.8
3111.46	-26
3112.06	-18.8
3112.66	-23.8
3113.26	-31
3113.86	-19.2
3114.46	-22
3115.06	-20.4
3115.66	-29.8
3116.26	-16.4
3116.86	-34.2
3117.46	-25
3118.06	-25.4
3118.66	-31.2
3119.26	-30.8
3119.86	-30.4
3120.46	-19
3121.06	-21
3121.66	-23
3122.26	-35.6
3122.85	-29.6
3123.45	-22.4
3124.05	-39.4
3124.65	-18.4
3125.25	-20.4
3125.84	-23.2
3126.44	-21.6
3127.04	-18.8
3127.64	-24.6
3128.23	-25.6
3128.83	-22.4
3129.43	-24.8
3130.02	-30
3130.62	-26.2
3131.22	-31.2
3131.81	-31
3132.41	-34.8
3133	-23
3133.6	-20.6
3134.19	-25.6
3134.79	-33.8
3135.39	-25.6
3135.98	-27
3136.58	-31.6
3137.17	-34.4
3137.76	-19.4
3138.36	-25
3138.95	-27.8
3139.55	-22.4
3140.14	-18.8
3140.73	-24.2
3141.33	-35.8
3141.92	-30.8
3142.51	-21.2
3143.11	-26
3143.7	-28.6
3144.29	-28.8
3144.89	-23.6
3145.48	-42.2
3146.07	-32.6
3146.66	-21.6
3147.26	-30
3147.85	-25.2
3148.44	-23
3149.03	-25
3149.62	-29.8
3150.21	-23.8
3150.8	-26
3151.39	-22.8
3151.99	-31.6
3152.58	-21.4
3153.17	-27.6
3153.76	-25.8
3154.35	-29.4
3154.94	-41
3155.53	-23
3156.12	-33.2
3156.71	-35.4
3157.29	-19.8
3157.88	-25.2
3158.47	-32
3159.06	-35.2
3159.65	-30.4
3160.24	-26.2
3160.83	-30.2
3161.42	-22.6
3162	-23
3162.59	-30.2
3163.18	-27.4
3163.77	-26.2
3164.35	-32.2
3164.94	-32.2
3165.53	-33.8
3166.12	-24.4
3166.7	-31.8
3167.29	-35.2
3167.88	-28
3168.46	-38
3169.05	-27.8
3169.64	-31.2
3170.22	-28.6
3170.81	-22.8
3171.39	-26.4
3171.98	-28.6
3172.56	-32
3173.15	-31.2
3173.73	-20
3174.32	-27.8
3174.9	-16.6
3175.49	-29.2
3176.07	-27.6
3176.65	-36.8
3177.24	-29.2
3177.82	-30.2
3178.41	-23.8
3178.99	-37.2
3179.57	-34.8
3180.16	-34.8
3180.74	-24.2
3181.32	-27.2
3181.91	-31.2
3182.49	-32.6
3183.07	-23.2
3183.65	-30.6
3184.23	-24.2
3184.82	-24.6
3185.4	-25
3185.98	-24.6
3186.56	-29.8
3187.14	-24.2
3187.72	-14
3188.3	-29.4
3188.89	-19.2
3189.47	-23.4
3190.05	-24.4
3190.63	-35.2
3191.21	-28
3191.79	-22.2
3192.37	-25
3192.95	-33.4
3193.53	-33.4
3194.11	-29.6
3194.69	-28.4
3195.26	-32.6
3195.84	-26.2
3196.42	-31.2
3197	-32.4
3197.58	-22.2
3198.16	-20.4
3198.74	-26.8
3199.31	-22.4
3199.89	-21.2
