100.582	568
101.867	554.5
103.152	548
104.437	517.5
105.721	517
107.004	503.5
108.287	490
109.571	476
110.853	457
112.136	446
113.418	472.5
114.7	450
115.981	468.5
117.262	458
118.543	425
119.823	413
121.103	433.5
122.383	443.5
123.663	409.5
124.942	409.5
126.221	427.5
127.499	418.5
128.777	372.5
130.056	409.5
131.333	398.5
132.61	384.5
133.887	369
135.163	389.5
136.439	369.5
137.715	372
138.992	356
140.267	350.5
141.541	333
142.816	323
144.09	344
145.364	321
146.637	307
147.911	286
149.184	319.5
150.457	304.5
151.729	281.5
153.001	301
154.273	300
155.544	274
156.815	268
158.086	274.5
159.356	259
160.626	258
161.896	247
163.165	254
164.434	256
165.703	228
166.971	246
168.24	258
169.507	238
170.774	220
172.042	236
173.309	247.5
174.575	235
175.841	223
177.107	232.5
178.373	210
179.637	202.5
180.902	220.5
182.167	204
183.431	194
184.695	211
185.958	202
187.222	212
188.485	202
189.747	194
191.009	213
192.272	182
193.534	181.5
194.795	202.5
196.055	194
197.316	180
198.577	199
199.837	176
201.096	184
202.356	182
203.615	187.5
204.873	166
206.132	175.5
207.39	176.5
208.648	179
209.905	184.5
211.162	189
212.419	178
213.675	175.5
214.932	185.5
216.187	176
217.443	151
218.697	167.5
219.953	163
221.207	163
222.462	167
223.715	189
224.969	161.5
226.222	166
227.475	169.5
228.727	153
229.98	164
231.232	166.5
232.483	156
233.734	147.5
234.986	144.5
236.236	157.5
237.486	162
238.737	156.5
239.986	174.5
241.235	168
242.484	184
243.733	177
244.981	225.5
246.229	238
247.477	266
248.725	279
249.971	333.5
251.219	323.5
252.465	278
253.711	211
254.957	181
256.203	170
257.448	174.5
258.693	189
259.937	214.5
261.181	188.5
262.425	161
263.669	160
264.912	175.5
266.155	137.5
267.398	143
268.64	171.5
269.881	140
271.123	149.5
272.364	149
273.605	135
274.846	132.5
276.086	127.5
277.326	139.5
278.566	146
279.806	122.5
281.045	115
282.283	139
283.522	135.5
284.76	124
285.998	107
287.235	125
288.473	121
289.71	116.5
290.946	131.5
292.182	117
293.418	106.5
294.654	95
295.888	115
297.123	124.5
298.358	96
299.592	134.5
300.826	127
302.06	122
303.293	98
304.526	116.5
305.759	102.5
306.991	79
308.223	94
309.455	92.5
310.687	82
311.917	93
313.148	111
314.379	93
315.609	95
316.839	92.5
318.068	86
319.297	101
320.526	70
321.754	87
322.982	93
324.21	91
325.438	83
326.665	102
327.892	93
329.118	91.5
330.345	84
331.571	86.5
332.797	87
334.022	73.5
335.247	98.5
336.471	87
337.696	77
338.92	81
340.144	92
341.367	91.5
342.591	69
343.813	87
345.036	84.5
346.257	89
347.48	82.5
348.701	64
349.922	102.5
351.143	63
352.363	75.5
353.583	60
354.803	80
356.023	68.5
357.243	80.5
358.462	74.5
359.68	70
360.899	58
362.117	71.5
363.334	79
364.551	64
365.769	71
366.986	93
368.202	77
369.418	60.5
370.633	72
371.849	82
373.065	65
374.279	74.5
375.494	75
376.708	79
377.921	67
379.136	56.5
380.349	76
381.562	66
382.774	61
383.987	66
385.198	72.5
386.41	61
387.621	49
388.832	68
390.043	63.5
391.253	43
392.463	62
393.674	68
394.883	57.5
396.092	67.5
397.301	62
398.509	67
399.717	51.5
400.925	49.5
402.133	55
403.34	67
404.547	50
405.753	61
406.96	71.5
408.165	53.5
409.371	51
410.576	64
411.781	71
412.986	45
414.191	48.5
415.394	69
416.598	47.5
417.802	47
419.005	41
420.208	63
421.41	51.5
422.613	57.5
423.815	55
425.016	51.5
426.217	54.5
427.418	42
428.619	53
429.818	48.5
431.019	44.5
432.218	61
433.418	58
434.617	33.5
435.815	48
437.014	40.5
438.212	58
439.41	45.5
440.607	47
441.805	55
443.001	54.5
444.198	39
445.394	64.5
446.59	47
447.785	49
448.98	36
450.175	41
451.37	35
452.564	31.5
453.758	37.5
454.952	42
456.145	34.5
457.339	32
458.531	49.5
459.724	39.5
460.916	31
462.107	36
463.299	44
464.49	34.5
465.681	45
466.871	28
468.062	57.5
469.252	34
470.441	36
471.631	41.5
472.819	49.5
474.008	42
475.196	27
476.385	40.5
477.572	37
478.76	35.5
479.946	25
481.133	38
482.32	36
483.506	25.5
484.692	47.5
485.877	50
487.063	34
488.247	37.5
489.432	40.5
490.616	32
491.8	17.5
492.984	13
494.167	42.5
495.35	13.5
496.533	31.5
497.715	24
498.897	52.5
500.079	17.5
501.26	29.5
502.441	37
503.622	33
504.803	32
505.983	24
507.163	32
508.342	26.5
509.522	33.5
510.701	39
511.88	29
513.058	16.5
514.236	36
515.413	43.5
516.591	24.5
517.768	9
518.945	28.5
520.121	37
521.297	5
522.473	24
523.648	28
524.823	26
525.998	20
527.173	27.5
528.348	27.5
529.522	30.5
530.694	20.5
531.868	26
533.041	13
534.214	21.5
535.386	12
536.558	44
537.731	38
538.902	19
540.073	19
541.244	26.5
542.414	-2
543.585	11.5
544.754	6
545.924	42.5
547.094	11
548.262	23
549.431	30
550.6	11.5
551.767	11.5
552.935	-7
554.103	6.5
555.27	27
556.436	18
557.603	21
558.769	26
559.935	8
561.1	17.5
562.266	40.5
563.431	16.5
564.595	14
565.759	22.5
566.924	17.5
568.087	6
569.25	6.5
570.414	26
571.576	21
572.739	8.5
573.901	14
575.062	30
576.224	18.5
577.385	7
578.546	8
579.707	9.5
580.867	11.5
582.028	33
583.187	22.5
584.347	24
585.505	18.5
586.664	24.5
587.822	24.5
588.98	29
590.138	8
591.296	15
592.453	14
593.61	19.5
594.767	22
595.922	26
597.079	21
598.234	12.5
599.39	-8
600.544	34
601.699	22
602.854	20.5
604.008	21
605.161	30.5
606.315	8.5
607.468	27.5
608.621	11
609.774	30.5
610.926	-4.5
612.078	24.5
613.229	34
614.381	12.5
615.532	9
616.682	29
617.833	16
618.983	-4.5
620.133	26
621.282	15.5
622.431	15
623.58	3.5
624.729	1
625.877	14
627.025	10.5
628.172	5
629.32	18.5
630.467	12.5
631.614	0
632.76	-5
633.906	20
635.052	22
636.197	2
637.343	4
638.488	13
639.632	1
640.776	-4
641.92	19
643.064	11
644.207	14
645.35	12.5
646.493	14.5
647.635	12.5
648.777	-0.5
649.919	-10
651.06	18
652.202	3
653.342	7
654.483	18.5
655.624	19
656.764	1.5
657.903	-3
659.043	17
660.181	11
661.32	-2
662.459	13
663.596	19.5
664.735	14
665.872	-15
667.009	7
668.146	12.5
669.282	-2.5
670.419	-1
671.555	20
672.69	16
673.826	-9
674.96	16.5
676.096	11.5
677.23	-9
678.364	-6
679.498	8
680.631	9
681.765	5
682.897	9
684.03	3
685.163	1
686.294	8.5
687.426	-15
688.557	12
689.689	5
690.819	-13
691.949	18
693.079	21.5
694.21	1.5
695.339	8
696.468	22
697.597	15.5
698.725	3
699.854	17.5
700.982	11.5
702.11	13
703.237	8
704.364	22
705.491	15.5
706.617	11.5
707.744	24
708.87	26
709.995	19
711.12	0
712.245	19
713.37	36.5
714.495	1
715.618	13
716.742	28
717.865	28.5
718.989	6
720.112	32
721.234	38
722.356	20
723.478	18
724.6	33.5
725.721	32
726.842	1.5
727.962	15
729.083	23
730.203	17
731.323	2
732.442	27.5
733.562	20
734.681	21.5
735.799	18
736.917	36.5
738.036	30
739.153	8.5
740.27	1
741.387	8.5
742.505	-2
743.62	10
744.736	16.5
745.853	20.5
746.968	11
748.083	7.5
749.199	9
750.313	13
751.427	6.5
752.541	4
753.655	15.5
754.768	5
755.882	-2
756.994	19
758.107	21.5
759.219	0.5
760.331	9
761.443	19
762.554	4
763.665	4
764.776	-8
765.885	16
766.996	3
768.106	24
769.215	26.5
770.324	15
771.434	12
772.542	3
773.65	22
774.758	11
775.865	-4
776.973	-10
778.081	17
779.187	9
780.293	-5
781.399	20
782.506	-6.5
783.611	8
784.716	9
785.821	5
786.926	15
788.03	-18
789.134	11
790.238	17
791.341	3
792.444	2.5
793.547	23.5
794.65	3.5
795.752	11
796.854	8
797.956	17
799.057	-3
800.158	6.5
801.259	11
802.359	25.5
803.459	12
804.559	1
805.659	21
806.758	22.5
807.857	9.5
808.955	6
810.053	29
811.152	17
812.25	9
813.347	7
814.444	28.5
815.541	8.5
816.638	31.5
817.733	40
818.83	30.5
819.925	16
821.02	34
822.115	19
823.21	29.5
824.305	37
825.398	17
826.492	45.5
827.586	31
828.679	33.5
829.772	59.5
830.865	46
831.957	46
833.049	41
834.141	56
835.232	56.5
836.323	49
837.414	64
838.505	65.5
839.595	52.5
840.685	58
841.774	64.5
842.864	60
843.952	62.5
845.041	67
846.129	62.5
847.218	56.5
848.306	60.75
849.393	63
850.48	42
851.567	42
852.654	51
853.74	53.5
854.826	64
855.912	45
856.997	47
858.082	50
859.167	49
860.252	38
861.336	29
862.42	67
863.504	45
864.587	48.5
865.67	66
866.753	69.5
867.835	46.5
868.917	58
869.999	75
871.081	46
872.162	34
873.243	53
874.323	52.5
875.404	41.5
876.484	58
877.564	60
878.643	45.5
879.722	45
880.802	62.5
881.88	53
882.958	42.5
884.036	42
885.113	46
886.191	51
887.268	41.5
888.344	47.5
889.421	66
890.498	32
891.573	29
892.649	40
893.724	31.5
894.799	47.5
895.874	47
896.948	38
898.022	34
899.096	29
900.17	20
901.243	58.5
902.315	32.5
903.389	31
904.461	48.5
905.533	48
906.605	39
907.676	37
908.747	34
909.818	39
910.888	29.5
911.958	48
913.028	32
914.098	48.5
915.167	26.5
916.237	52.5
917.306	37.5
918.374	36.5
919.442	35.5
920.51	46
921.577	31
922.644	21
923.711	17
924.778	43
925.845	35
926.911	30
927.977	28
929.042	36.5
930.107	22
931.173	30
932.237	40
933.301	23
934.365	29.5
935.429	29
936.492	48.5
937.556	23
938.619	27.5
939.681	35.5
940.743	45
941.805	39
942.867	37
943.928	47
944.989	19
946.05	30
947.11	24
948.17	39
949.23	19
950.29	34
951.349	39.5
952.409	23.5
953.467	31
954.526	27.5
955.584	43.5
956.641	31
957.699	23.5
958.756	37
959.813	44
960.869	21.5
961.926	8
962.982	54
964.038	42.5
965.094	23
966.149	34.5
967.204	52
968.258	31
969.312	28
970.366	38.5
971.42	36.5
972.473	30.5
973.527	41.5
974.58	45
975.631	15
976.684	26
977.736	29
978.787	21
979.839	20.5
980.89	12
981.94	26.5
982.991	28
984.041	15
985.091	22
986.141	25
987.19	15
988.239	19
989.288	7
990.336	13.5
991.384	11
992.432	12
993.48	13.5
994.527	19
995.574	13.5
996.62	20
997.666	28.5
998.713	9.5
999.759	13.5
1000.8	16
1001.85	18
1002.89	10
1003.94	20
1004.98	22.5
1006.03	12.5
1007.07	11
1008.11	6.5
1009.16	26.5
1010.2	15
1011.24	13.5
1012.29	23
1013.33	19.5
1014.37	19
1015.41	9
1016.45	23.5
1017.49	25
1018.53	11.5
1019.57	19.5
1020.61	13.5
1021.65	12
1022.69	33.5
1023.73	27
1024.77	32
1025.81	17.5
1026.85	21
1027.88	11
1028.92	23
1029.96	21
1031	12
1032.03	21.5
1033.07	22
1034.1	16
1035.14	8
1036.18	14
1037.21	18.5
1038.25	38
1039.28	12
1040.32	11
1041.35	28.5
1042.38	27.5
1043.42	28
1044.45	19
1045.48	8.5
1046.52	34
1047.55	8
1048.58	18
1049.61	16
1050.64	13
1051.67	16.5
1052.71	9.5
1053.74	20
1054.77	34.5
1055.8	18.5
1056.83	22
1057.85	50.5
1058.88	42
1059.91	37.5
1060.94	37.5
1061.97	49
1063	40.5
1064.03	35
1065.05	57
1066.08	40.5
1067.11	38.5
1068.13	30.5
1069.16	52
1070.19	24
1071.21	29.5
1072.24	50
1073.26	46.5
1074.29	51
1075.31	44
1076.34	50
1077.36	66
1078.38	33
1079.41	44.5
1080.43	62
1081.45	37
1082.47	43
1083.5	66
1084.52	44.5
1085.54	51.5
1086.56	42
1087.58	54
1088.6	49.5
1089.62	28
1090.64	45
1091.66	44.5
1092.68	22
1093.7	23
1094.72	35.5
1095.74	14
1096.76	24.5
1097.78	32
1098.79	35
1099.81	28.5
1100.83	11.5
1101.85	21
1102.86	13
1103.88	9
1104.9	-3
1105.91	30
1106.93	19.5
1107.94	19.5
1108.96	6
1109.97	24.5
1110.99	22.5
1112	4.5
1113.01	23
1114.03	14.5
1115.04	12
1116.05	10
1117.07	23.5
1118.08	19
1119.09	18
1120.1	11.5
1121.11	13.5
1122.13	7
1123.14	9.5
1124.15	-3
1125.16	-4
1126.17	-6
1127.18	13
1128.19	15
1129.2	3.5
1130.2	-4
1131.21	-11
1132.22	-2
1133.23	0
1134.24	-18
1135.25	0
1136.25	2
1137.26	-12
1138.27	-8
1139.27	8
1140.28	-12
1141.28	2
1142.29	5.5
1143.29	10
1144.3	-10.5
1145.3	-2.5
1146.31	0
1147.31	1.5
1148.32	-5
1149.32	-2.93333
1150.32	-0.0410191
1151.33	-20.327
1152.33	-8.98006
1153.33	-6.41584
1154.33	2.29094
1155.33	-3.75091
1156.34	1.14195
1157.34	8.54227
1158.34	8.77008
1159.34	-23.6341
1160.34	4.69709
1161.34	2.64343
1162.34	-19.7543
1163.34	-10.3098
1164.34	-11.8126
1165.34	0.298301
1166.33	-6.34985
1167.33	-8.128
1168.33	4.74418
1169.33	0.623469
1170.33	-16.6062
1171.32	-3.23793
1172.32	3.20802
1173.32	0.858889
1174.31	-3.29845
1175.31	2.11469
1176.31	13.7964
1177.3	-7.48782
1178.3	-0.846757
1179.29	-8.5009
1180.29	2.2469
1181.28	-11.2757
1182.27	-4.01317
1183.27	-4.04898
1184.26	-2.35953
1185.25	-5.99139
1186.25	5.37291
1187.24	6.60788
1188.23	-5.56437
1189.22	-8.71189
1190.22	-4.85257
1191.21	0.807056
1192.2	-0.199001
1193.19	-3.50388
1194.18	4.9266
1195.17	-0.351197
1196.16	-3.60296
1197.15	4.72061
1198.14	1.51665
1199.13	-9.79333
1200.12	-3.11562
1201.11	1.99622
1202.09	11.1713
1203.08	-3.75947
1204.07	-0.640336
1205.06	2.39664
1206.04	-7.09284
1207.03	-1.49029
1208.02	5.10856
1209	8.98101
1209.99	2.06578
1210.98	7.32415
1211.96	8.7199
1212.95	5.11243
1213.93	3.16635
1214.92	2.39931
1215.9	6.30217
1216.89	10.7662
1217.87	4.94683
1218.85	3.13748
1219.84	4.64382
1220.82	7.77097
1221.8	4.4914
1222.78	8.52001
1223.77	11.559
1224.75	12.4421
1225.73	7.52843
1226.71	7.00179
1227.69	11.2561
1228.67	-1.2034
1229.65	4.01669
1230.63	15.6383
1231.61	17.1686
1232.59	8.22132
1233.57	13.1564
1234.55	25.1524
1235.53	21.75
1236.51	8.24028
1237.49	24.3216
1238.46	17.9229
1239.44	13.4041
1240.42	19.4732
1241.4	23.5908
1242.37	27.0315
1243.35	30.2706
1244.32	24.834
1245.3	36.5411
1246.28	34.4625
1247.25	36.7894
1248.23	39.4391
1249.2	42.7179
1250.18	45.8131
1251.15	44.5701
1252.12	46.3833
1252.72	50
1253.73	68
1254.74	58.5
1255.75	70
1256.75	54
1257.76	74
1258.77	72.5
1259.78	84
1260.79	65
1261.79	67
1262.8	72.5
1263.81	74
1264.81	86
1265.82	71.5
1266.82	68
1267.83	62
1268.83	57
1269.84	73.5
1270.84	70.5
1271.85	71.5
1272.85	65.5
1273.86	65.5
1274.86	41
1275.86	64
1276.87	57
1277.87	46.5
1278.87	50.5
1279.88	45.5
1280.88	28.5
1281.88	55
1282.88	39
1283.88	39.5
1284.88	34.5
1285.88	48
1286.89	42
1287.89	40
1288.89	49
1289.89	45
1290.89	50.5
1291.89	48.5
1292.88	54
1293.88	84
1294.88	57
1295.88	52.5
1296.88	80
1297.88	58.5
1298.88	76
1299.87	82
1300.87	68
1301.87	57
1302.86	89
1303.86	75
1304.86	68
1305.85	48
1306.85	56.5
1307.85	66
1308.84	51.5
1309.84	53
1310.83	54
1311.83	48
1312.82	39.5
1313.81	31.5
1314.81	40
1315.8	31
1316.8	16
1317.79	18.5
1318.78	36
1319.77	44.5
1320.77	13
1321.76	18
1322.75	24
1323.74	22
1324.73	19
1325.72	17
1326.72	29.5
1327.71	13
1328.7	5.5
1329.69	33
1330.68	14.5
1331.67	17.5
1332.66	18.5
1333.65	15
1334.63	-3
1335.62	13
1336.61	7
1337.6	7.5
1338.59	1.5
1339.58	-10
1340.56	17
1341.55	10.5
1342.54	7.5
1343.53	25
1344.51	17
1345.5	8
1346.48	4.5
1347.47	17.5
1348.45	19
1349.44	-1
1350.43	-2.5
1351.41	21
1352.4	-7
1353.38	14.5
1354.36	7
1355.35	7
1356.33	-10
1357.31	6
1358.3	-8
1359.28	9.5
1360.26	9
1361.25	2
1362.23	8
1363.21	8
1364.19	-9.5
1365.17	3
1366.15	11
1367.14	-13.5
1368.12	7
1369.1	7.5
1370.08	7
1371.06	-11
1372.04	-9
1373.02	7
1373.99	7.5
1374.97	-27
1375.95	-3
1376.93	8
1377.91	-6
1378.89	-8
1379.86	-4
1380.84	-8
1381.82	-10
1382.8	-23
1383.77	7
1384.75	-4.5
1385.73	-14
1386.7	-8
1387.68	-14
1388.65	-3
1389.63	-1.5
1390.6	-12
1391.58	5.5
1392.55	-23.5
1393.53	-16
1394.5	-1
1395.48	-10.5
1396.45	-3
1397.42	-11
1398.4	12
1399.37	-16
1400.34	2
1401.31	-6
1402.29	-6
1403.26	-16.5
1404.23	2
1405.2	16
1406.17	-1.5
1407.14	-33
1408.11	-8
1409.08	-1.5
1410.05	-14.5
1411.02	-2
1411.99	15
1412.96	-14
1413.93	-5
1414.9	14.5
1415.87	15.5
1416.84	8
1417.81	-2
1418.78	6.5
1419.74	10.5
1420.71	-6
1421.68	6.5
1422.65	14.5
1423.61	12
1424.58	8
1425.55	15
1426.51	27.5
1427.48	36.5
1428.44	14
1429.41	50
1430.37	48
1431.34	33
1432.3	62
1433.27	69
1434.23	76.5
1435.2	91
1436.16	97.5
1437.12	99
1438.09	92
1439.05	82
1440.01	77
1440.97	87
1441.94	73
1442.9	74
1443.86	87
1444.82	75.5
1445.78	59
1446.74	64.5
1447.7	71
1448.67	56
1449.63	38
1450.59	60
1451.55	55
1452.5	39.5
1453.46	48
1454.42	57.5
1455.38	44.5
1456.34	40.5
1457.3	45
1458.26	38
1459.21	28.5
1460.17	24
1461.13	30
1462.09	26.5
1463.04	30
1464	35
1464.96	38.5
1465.91	2.5
1466.87	-2
1467.82	33
1468.78	-8.5
1469.73	4
1470.69	-2.5
1471.64	1
1472.6	9
1473.55	-11.5
1474.51	2
1475.46	-9.5
1476.41	2
1477.37	-25.5
1478.32	-7.5
1479.27	1.5
1480.23	-10
1481.18	-30
1482.13	0
1483.08	-17
1484.03	-14.5
1484.98	-16
1485.94	-2
1486.89	-8.5
1487.84	-30.5
1488.79	4.5
1489.74	-23.5
1490.69	-26.5
1491.64	-24
1492.59	5.5
1493.54	-33
1494.48	-29
1495.43	-20
1496.38	-18.5
1497.33	-38.5
1498.28	-33
1499.23	-23
1500.17	4
1501.12	-31.5
1502.07	-28
1503.01	-7
1503.96	-18
1504.91	-19.5
1505.85	-11
1506.8	-22
1507.74	-24
1508.69	-45
1509.64	1.5
1510.58	-17.5
1511.52	-6
1512.47	-23
1513.41	-13
1514.36	-9.5
1515.3	-30
1516.24	-11
1517.19	-32.5
1518.13	-16.5
1519.07	-32
1520.01	-10.5
1520.96	-32
1521.9	-22
1522.84	-38
1523.78	-22.5
1524.72	-27.5
1525.66	-14
1526.6	-8
1527.55	-21
1528.49	-27.5
1529.43	-19
1530.37	-13
1531.3	-31.5
1532.24	-23
1533.18	-32
1534.12	-24
1535.06	-41
1536	-29
1536.94	-11
1537.88	-21
1538.81	-25.5
1539.75	-21.5
1540.69	-19.5
1541.62	-31.5
1542.56	-40
1543.5	-25
1544.43	-14.5
1545.37	-26
1546.3	-33
1547.24	-13
1548.18	-15.5
1549.11	-25.5
1550.05	-39
1550.98	-22.5
1551.91	-25
1552.85	-23
1553.78	-26
1554.72	-16.5
1555.65	-40.5
1556.58	-19
1557.51	-14
1558.45	-26.5
1559.38	-28.5
1560.31	-32
1561.24	-21.5
1562.17	-33
1563.11	-35.5
1564.04	-27
1564.97	-25.5
1565.9	-33
1566.83	-18.5
1567.76	-19
1568.69	-21.5
1569.62	-55
1570.55	-30
1571.48	-26.5
1572.41	-31.5
1573.34	-29
1574.26	-16.5
1575.19	-14
1576.12	-25.5
1577.05	-26
1577.98	-26.5
1578.9	-25
1579.83	-31
1580.76	-31
1581.68	-16
1582.61	-18.5
1583.54	-29
1584.46	-15.5
1585.39	-18
1586.31	-26.5
1587.24	-40
1588.16	-23
1589.09	-18.5
1590.01	-23
1590.94	-39
1591.86	-16
1592.78	-12
1593.71	-22
1594.63	-28
1595.55	-22.5
1596.48	-28.5
1597.4	-19
1598.32	-6
1599.24	-35.5
1600.17	-26.5
1601.09	-31
1602.01	-34
1602.93	-23
1603.85	-23
1604.77	-14
1605.69	-15.5
1606.61	-28.5
1607.53	-20
1608.45	-16
1609.37	-24
1610.29	-21
1611.21	-29
1612.13	-25.5
1613.05	-28
1613.96	-24
1614.88	-15.5
1615.8	-25
1616.72	-22
1617.63	-17
1618.55	-16
1619.47	-26.5
1620.38	-26
1621.3	-39
1622.22	-32.5
1623.13	-34.5
1624.05	-17
1624.96	-18
1625.88	-16.5
1626.79	-22.5
1627.71	-19
1628.62	-12.5
1629.54	-24.5
1630.45	-32
1631.37	-20
1632.28	-11
1633.19	-25.5
1634.1	-24
1635.02	-14
1635.93	-14.5
1636.84	-23
1637.75	-10
1638.67	-2.5
1639.58	-20
1640.49	-9.5
1641.4	2
1642.31	-25.5
1643.22	1
1644.13	-11
1645.04	11
1645.95	21
1646.86	7.5
1647.77	38.5
1648.68	37.5
1649.59	35
1650.5	40
1651.41	38
1652.31	52
1653.22	44
1654.13	63
1655.04	80.5
1655.95	74.5
1656.85	74
1657.76	61
1658.67	68.5
1659.57	45
1660.48	48
1661.38	35
1662.29	31.5
1663.2	11
1664.1	4
1665.01	14
1665.91	6
1666.81	5
1667.72	-11
1668.62	-4
1669.53	-6.5
1670.43	-16
1671.33	-25
1672.24	-10
1673.14	-19
1674.04	-34.5
1674.94	-16.5
1675.85	-18
1676.75	-35.5
1677.65	-4.5
1678.55	-16
1679.45	-16.5
1680.35	-46
1681.25	-21
1682.15	-43.5
1683.05	-22
1683.95	-44
1684.85	-30.5
1685.75	-28
1686.65	-32
1687.55	-40
1688.45	-35
1689.35	-11.5
1690.25	-38
1691.15	-17
1692.04	-26
1692.94	-27
1693.84	-30
1694.74	-18
1695.63	-18.5
1696.53	-29
1697.43	-30
1698.32	-17.5
1699.22	-40
1700.11	-24
1701.01	-20
1701.9	-37
1702.8	-33.5
1703.69	-40
1704.59	-28
1705.48	-37
1706.38	-33
1707.27	-30.5
1708.16	-26
1709.06	-23
1709.95	-23
1710.84	-43
1711.74	-50.5
1712.63	-32.5
1713.52	-39
1714.41	-34.5
1715.3	-26.5
1716.2	-38.5
1717.09	-31
1717.98	-18
1718.87	-35
1719.76	-27
1720.65	-31
1721.54	-32
1722.43	-22
1723.32	-26
1724.21	-28
1725.1	-43
1725.99	-32
1726.88	-17.5
1727.76	-30
1728.65	-34.5
1729.54	-18
1730.43	-28
1731.31	-25
1732.2	-38
1733.09	-33
1733.98	-25
1734.86	-25
1735.75	-28
1736.63	-20
1737.52	-19
1738.41	-15
1739.29	-16
1740.18	-27
1741.06	-11.5
1741.95	-8
1742.83	-12
1743.72	-18
1744.6	-18.5
1745.48	-27
1746.37	-17.5
1747.25	-30
1748.13	-8.5
1749.02	-26
1749.9	-25
1750.78	-26.5
1751.66	-13
1752.54	-19.5
1753.43	-26.25
1754.31	-35.5
1755.19	-40
1756.07	-27
1756.95	-17
1757.83	-21
1758.71	-20
1759.59	-30.5
1760.47	-27.5
1761.35	-34
1762.23	-27
1763.11	-38.5
1763.99	-27.5
1764.87	-54
1765.74	-24
1766.62	-15.5
1767.5	-29
1768.38	-27
1769.25	-16.5
1770.13	-42
1771.01	-30
1771.89	-23
1772.76	-36
1773.64	-36
1774.51	-33
1775.39	-36
1776.27	-32
1777.14	-38.5
1778.02	-34
1778.89	-33.5
1779.76	-47
1780.64	-20
1781.51	-26
1782.39	-26
1783.26	-34
1784.13	-40
1785.01	-35
1785.88	-22
1786.75	-14
1787.63	-33
1788.5	-34
1789.37	-36.5
1790.24	-28
1791.11	-18
1791.98	-46.5
1792.86	-19
1793.73	-33
1794.6	-27.5
1795.47	-31.5
1796.34	-34.5
1797.21	-28
1798.08	-28
1798.95	-34.5
1799.82	-39
1800.68	-19
1801.55	-32
1802.42	-18
1803.29	-21.5
1804.16	-18.5
1805.03	-46.5
1805.89	-35
1806.76	-32
1807.63	-25.5
1808.49	-44
1809.36	-24
1810.23	-18
1811.09	-30
1811.96	-30
1812.83	-21
1813.69	-15
1814.56	-37.5
1815.42	-26
1816.29	-23
1817.15	-38.5
1818.02	-30
1818.88	-46
1819.74	-30.5
1820.61	-27
1821.47	-29
1822.33	-25
1823.2	-40
1824.06	-19
1824.92	-33
1825.78	-23
1826.65	-27
1827.51	-57.5
1828.37	-29
1829.23	-21.5
1830.09	-46.5
1830.95	-51
1831.81	-22
1832.67	-46
1833.53	-33.5
1834.39	-42
1835.25	-30
1836.11	-25.5
1836.97	-44
1837.83	-36
1838.69	-32.5
1839.55	-41
1840.41	-38
1841.26	-30.5
1842.12	-37
1842.98	-26.5
1843.84	-33
1844.69	-36.5
1845.55	-38
1846.41	-31.5
1847.26	-23
1848.12	-20.5
1848.98	-52.5
1849.83	-43
1850.69	-36
1851.54	-27.5
1852.4	-24.5
1853.25	-25
1854.11	-23.5
1854.96	-27
1855.82	-26.5
1856.67	-39
1857.52	-17
1858.38	-48
1859.23	-39
1860.08	-17
1860.93	-37
1861.79	-35
1862.64	-35
1863.49	-28
1864.34	-37.5
1865.19	-25.5
1866.05	-37
1866.9	-37
1867.75	-27
1868.6	-37
1869.45	-34
1870.3	-47
1871.15	-44
1872	-28
1872.85	-27
1873.7	-41.5
1874.55	-34
1875.4	-25
1876.24	-34
1877.09	-35
1877.94	-49
1878.79	-18
1879.64	-36.5
1880.48	-33
1881.33	-31
1882.18	-18
1883.02	-35.5
1883.87	-29.5
1884.72	-19.5
1885.56	-24
1886.41	-37.5
1887.25	-37
1888.1	-22
1888.94	-31
1889.79	-40
1890.63	-23
1891.48	-23.5
1892.32	-32
1893.17	-43
1894.01	-32
1894.85	-39.5
1895.7	-37.5
1896.54	-32
1897.38	-34
1898.23	-28
1899.07	-35
1899.91	-27
1900.75	-16.5
1901.59	-35
1902.44	-24.5
1903.28	-30
1904.12	-21
1904.96	-38.5
1905.8	-24
1906.64	-24.5
1907.48	-42
1908.32	-28
1909.16	-19.5
1910	-25
1910.84	-39.5
1911.68	-23
1912.51	-28
1913.35	-16.5
1914.19	-39
1915.03	-27
1915.87	-23.5
1916.7	-38
1917.54	-46
1918.38	-20
1919.21	-39
1920.05	-49
1920.89	-33
1921.72	-27
1922.56	-43
1923.4	-27
1924.23	-31
1925.07	-15.5
1925.9	-35.5
1926.74	-31.5
1927.57	-23
1928.41	-27
1929.24	-27
1930.07	-29
1930.91	-11.5
1931.74	-23.5
1932.57	-32.5
1933.41	-30
1934.24	-34
1935.07	-20
1935.9	-48
1936.74	-16.5
1937.57	-27
1938.4	-38
1939.23	-36
1940.06	-29
1940.89	-26
1941.72	-39
1942.55	-45
1943.38	-31
1944.21	-29.5
1945.04	-22.5
1945.87	-11.5
1946.7	-43.5
1947.53	-27
1948.36	-18
1949.19	-24.5
1950.02	-29.5
1950.84	-31
1951.67	-40
1952.5	-26
1953.33	-37.5
1954.15	-29
1954.98	-17.5
1955.81	-31.5
1956.64	-51
1957.46	-25
1958.29	-27
1959.11	-44
1959.94	-26.5
1960.76	-22
1961.59	-29
1962.41	-36
1963.24	-19
1964.06	-23.5
1964.89	-26
1965.71	-34
1966.53	-27
1967.36	-22
1968.18	-43
1969	-44
1969.83	-23
1970.65	-26
1971.47	-36.5
1972.3	-32
1973.12	-16.5
1973.94	-28.5
1974.76	-47
1975.58	-23.5
1976.4	-27.5
1977.22	-28
1978.04	-41
1978.86	-32
1979.68	-39
1980.5	-24
1981.32	-28
1982.14	-29.5
1982.96	-30
1983.78	-44
1984.6	-31
1985.42	-33
1986.24	-36
1987.06	-42
1987.87	-28
1988.69	-32
1989.51	-34
1990.32	-26.5
1991.14	-17
1991.96	-24.5
1992.78	-34
1993.59	-24
1994.41	-27.5
1995.22	-29
1996.04	-42
1996.85	-15.5
1997.67	-51.3048
1998.48	-33.8189
1999.3	-25.6574
2000.11	-24.0911
2000.93	-41.7816
2001.74	-32.2022
2002.56	-35.5051
2003.37	-24.1787
2004.18	-36.0363
2004.99	-33.976
2005.81	-24.6207
2006.62	-30.7363
2007.43	-39.7393
2008.25	-26.4506
2009.06	-21.0734
2009.87	-31.771
2010.68	-33.0371
2011.49	-30.9175
2012.3	-23.8566
2013.11	-36.6172
2013.92	-41.0525
2014.73	-13.3
2015.54	-35.801
2016.35	-41.5497
2017.16	-31.3288
2017.97	-16.9859
2018.78	-30.4801
2019.59	-31.4334
2020.4	-19.3958
2021.21	-22.0832
2022.02	-33.6906
2022.83	-27.7367
2023.63	-28.3013
2024.44	-24.7897
2025.25	-29.4737
2026.06	-21.8
2026.86	-18.4119
2027.67	-29.3863
2028.48	-35.6703
2029.28	-24.9016
2030.09	-25.3119
2030.89	-28.5192
2031.7	-39.1852
2032.5	-24.5366
2033.31	-27.6775
2034.11	-22.5503
2034.92	-28.726
2035.72	-27.3774
2036.53	-30.2031
2037.33	-31.7428
2038.14	-24.0739
2038.94	-30.2667
2039.74	-27.6399
2040.55	-18.7423
2041.35	-17.4703
2042.15	-36.9073
2042.95	-27.3907
2043.76	-25.639
2044.56	-23.0211
2045.36	-36.0113
2046.16	-34.8607
2046.96	-34.1065
2047.76	-37.1365
2048.56	-33.0155
2049.37	-30.8031
2050.17	-21.1427
2050.97	-37.2365
2051.77	-26.112
2052.57	-8.8029
2053.36	-15.7652
2054.16	-30.9117
2054.96	-27.9221
2055.76	-17.4156
2056.56	-20.0801
2057.36	-28.2625
2058.16	-28.6416
2058.96	-20.6223
2059.75	-22.6667
2060.55	-28.6569
2061.35	-22.6662
2062.14	-15.4064
2062.94	-23.8714
2063.74	-22.9586
2064.53	-15.8926
2065.33	-24.084
2066.13	-27.4377
2066.92	-20.9073
2067.72	-19.33
2068.51	-27.8123
2069.31	-40.259
2070.1	-29.8611
2070.9	-10.5592
2071.69	-11.7368
2072.49	-21.1965
2073.28	-20.1536
2074.07	-15.2368
2074.87	-27.3643
2075.66	-26.0803
2076.45	-20.8303
2077.25	-12.7635
2078.04	-16.3289
2078.83	-24.0097
2079.62	-7.10018
2080.41	-3.2846
2081.21	-30.6874
2081.38	-38
2082.2	-19
2083.03	-7
2083.86	-26
2084.68	-6.5
2085.51	-13.5
2086.34	-17
2087.16	-8
2087.99	-19.5
2088.81	-3
2089.64	-11
2090.46	-13
2091.29	-26
2092.11	-5.5
2092.94	-26
2093.76	-13
2094.58	-6.5
2095.41	-10.5
2096.23	-21
2097.06	-22.5
2097.88	-10.5
2098.7	-19
2099.53	-18
2100.35	-17.5
2101.17	-14
2101.99	-29
2102.81	-19
2103.64	-21
2104.46	-12.5
2105.28	-8
2106.1	-18
2106.92	-16
2107.74	-10
2108.56	-19
2109.38	-29.5
2110.2	-16
2111.03	-34
2111.84	-18
2112.66	-11.5
2113.48	-26
2114.3	-19.5
2115.12	-26
2115.94	-10
2116.76	-19
2117.58	-22
2118.4	-27
2119.22	-29
2120.03	-37
2120.85	-19.5
2121.67	-12.5
2122.49	1.5
2123.3	-15
2124.12	-15.5
2124.94	2.5
2125.76	-15
2126.57	-18.5
2127.39	-10.5
2128.2	-15
2129.02	-32
2129.83	-14
2130.65	-12
2131.47	-17
2132.28	-26
2133.1	-11.5
2133.91	-5
2134.73	-14
2135.54	-29
2136.35	-27
2137.17	-23
2137.98	-37
2138.79	-24.5
2139.61	-14.5
2140.42	-22
2141.23	-22
2142.05	-17
2142.86	-3
2143.67	-33
2144.48	-25
2145.3	-26.5
2146.11	-25
2146.92	-40
2147.73	-29
2148.54	0.5
2149.35	-16
2150.16	-19.5
2150.97	-13
2151.79	-5
2152.6	-21
2153.41	-23.5
2154.22	-10
2155.02	-28
2155.83	-29
2156.64	-35.5
2157.45	-14
2158.26	-22
2159.07	-25
2159.88	-15.5
2160.69	-20
2161.5	-26
2162.3	-30.5
2163.11	-18
2163.92	-25
2164.73	-36
2165.53	-31.5
2166.34	-8.5
2167.15	-21
2167.95	-24
2168.76	-24.5
2169.57	-8
2170.37	-17
2171.18	-31
2171.98	-28.5
2172.79	-24
2173.59	-42
2174.4	-36.5
2175.2	-10
2176.01	-22
2176.81	-44
2177.62	-4.5
2178.42	-11
2179.22	-21
2180.03	-30
2180.83	-19
2181.63	-22
2182.44	-18
2183.24	-27
2184.04	-2
2184.85	-28
2185.65	-19
2186.45	-23
2187.25	-32
2188.05	-13
2188.86	-30
2189.66	-17.5
2190.46	-40
2191.26	-28
2192.06	-28
2192.86	-9
2193.66	-37
2194.46	-31
2195.26	-15
2196.06	-20
2196.86	-16
2197.66	-31.5
2198.46	-30.5
2199.26	-18.5
2200.06	-44
2200.85	-24.5
2201.65	-7
2202.45	-45
2203.25	-35
2204.05	-28
2204.84	-25
2205.64	-24.5
2206.44	-32
2207.24	-17
2208.03	-44
2208.83	-47
2209.63	-23.5
2210.42	-30
2211.22	-24
2212.01	-36
2212.81	-27
2213.61	-28
2214.4	-30
2215.2	-45.5
2215.99	-24.5
2216.79	-23.5
2217.58	-34
2218.37	-34
2219.17	-21
2219.96	-28
2220.76	-31.5
2221.55	-19.5
2222.34	-20
2223.14	-29.5
2223.93	-29.5
2224.72	-22.5
2225.51	-34
2226.31	-45
2227.1	-35
2227.89	-27
2228.68	-35.5
2229.47	-26.5
2230.27	-29
2231.06	-33
2231.85	-26.5
2232.64	-25.5
2233.43	-27.5
2234.22	-43
2235.01	-33.5
2235.8	-35
2236.59	-23
2237.38	-37.5
2238.17	-22.5
2238.96	-28.5
2239.75	-40
2240.54	-30
2241.33	-32
2242.11	-26
2242.9	-29
2243.69	-38
2244.48	-30
2245.27	-24
2246.05	-35
2246.84	-42.5
2247.63	-25.5
2248.41	-30
2249.2	-36
2249.99	-24
2250.77	-31.5
2251.56	-32
2252.35	-45
2253.13	-21
2253.92	-37
2254.7	-43
2255.49	-35
2256.27	-29
2257.06	-22
2257.84	-30
2258.63	-20.5
2259.41	-30.5
2260.2	-45
2260.98	-34.5
2261.76	-37
2262.55	-31.5
2263.33	-34.5
2264.11	-36.5
2264.9	-16.5
2265.68	-30
2266.46	-32
2267.24	-21.5
2268.03	-37
2268.81	-27.5
2269.59	-28.5
2270.37	-27
2271.15	-40
2271.93	-29.5
2272.71	-33
2273.5	-17
2274.28	-36
2275.06	-22.5
2275.84	-34
2276.62	-25
2277.4	-39.5
2278.18	-44
2278.96	-28.5
2279.73	-37
2280.51	-31
2281.29	-36.5
2282.07	-42
2282.85	-29
2283.63	-31.5
2284.41	-21
2285.18	-25
2285.96	-21
2286.74	-35
2287.52	-32
2288.29	-36
2289.07	-33
2289.85	-32.5
2290.62	-28
2291.4	-41.5
2292.18	-26.5
2292.95	-34
2293.73	-27.5
2294.5	-25.5
2295.28	-30
2296.05	-25.5
2296.83	-32
2297.6	-40
2298.38	-37
2299.15	-13.5
2299.93	-35
2300.7	-32
2301.48	-27
2302.25	-47
2303.02	-53
2303.8	-39
2304.57	-27.5
2305.34	-40
2306.11	-42
2306.89	-34.5
2307.66	-33
2308.43	-28
2309.2	-31
2309.97	-35
2310.75	-29.5
2311.52	-37
2312.29	-48
2313.06	-34.5
2313.83	-22
2314.6	-35
2315.37	-38
2316.14	-36
2316.91	-27
2317.68	-30
2318.45	-22.5
2319.22	-35
2319.99	-42
2320.76	-27
2321.53	-21.5
2322.3	-38.5
2323.06	-34.5
2323.83	-36
2324.6	-36
2325.37	-24
2326.14	-32.5
2326.9	-23
2327.67	-30.5
2328.44	-41
2329.21	-27
2329.97	-22.5
2330.74	-48
2331.5	-37
2332.27	-31.5
2333.04	-23
2333.8	-29
2334.57	-37.5
2335.33	-31
2336.1	-38
2336.86	-38.5
2337.63	-45
2338.39	-25
2339.16	-26
2339.92	-35
2340.69	-33
2341.45	-41
2342.21	-34.5
2342.98	-31.5
2343.74	-35
2344.5	-36.5
2345.27	-48.5
2346.03	-32
2346.79	-32.5
2347.55	-39
2348.31	-40
2349.08	-28
2349.84	-30
2350.6	-29.5
2351.36	-35
2352.12	-31
2352.88	-36
2353.64	-36.5
2354.41	-31
2355.17	-50
2355.93	-37
2356.69	-39
2357.45	-30.5
2358.21	-39
2358.96	-19
2359.72	-26
2360.48	-34
2361.24	-29
2362	-32
2362.76	-35
2363.52	-21.5
2364.28	-37
2365.03	-36.5
2365.79	-32
2366.55	-48
2367.31	-40
2368.06	-20
2368.82	-24
2369.58	-38
2370.33	-34.5
2371.09	-31
2371.85	-29
2372.6	-39.5
2373.36	-37
2374.11	-30
2374.87	-42
2375.62	-35
2376.38	-31.5
2377.13	-32
2377.89	-27.5
2378.64	-31
2379.4	-24.5
2380.15	-43
2380.9	-38
2381.66	-44
2382.41	-30
2383.16	-29.5
2383.92	-41.5
2384.67	-22
2385.42	-29
2386.18	-32.5
2386.93	-34
2387.68	-30
2388.43	-28.5
2389.18	-28
2389.94	-41.5
2390.69	-25
2391.44	-41.5
2392.19	-21.5
2392.94	-25.5
2393.69	-30.5
2394.44	-34.5
2395.19	-34.5
2395.94	-29
2396.69	-18.5
2397.44	-30
2398.19	-30.5
2398.94	-29.5
2399.69	-49
2400.44	-29.5
2401.19	-30.5
2401.93	-37
2402.68	-44.5
2403.43	-35.5
2404.18	-25
2404.93	-38
2405.67	-45.5
2406.42	-38.5
2407.17	-33
2407.92	-34.5
2408.66	-36.5
2409.41	-14.5
2410.16	-33
2410.9	-41.5
2411.65	-39.5
2412.39	-31
2413.14	-49
2413.89	-37.5
2414.63	-32
2415.38	-34
2416.12	-42
2416.86	-39.5
2417.61	-18
2418.35	-26
2419.1	-28.5
2419.84	-33
2420.59	-39
2421.33	-40.5
2422.07	-32
2422.82	-32
2423.56	-26
2424.3	-32
2425.04	-41
2425.79	-30
2426.53	-27.5
2427.27	-42.5
2428.01	-39.5
2428.75	-43
2429.5	-29.5
2430.24	-32
2430.98	-35
2431.72	-38
2432.46	-37.5
2433.2	-29
2433.94	-20.5
2434.68	-41
2435.42	-47.5
2436.16	-38
2436.9	-50
2437.64	-51
2438.38	-31
2439.12	-25
2439.86	-36
2440.59	-27.5
2441.33	-27.5
2442.07	-29
2442.81	-28
2443.55	-47
2444.28	-24.5
2445.02	-45
2445.76	-45
2446.5	-29
2447.23	-40
2447.97	-28.5
2448.71	-52.5
2449.44	-33.5
2450.18	-27.5
2450.91	-34
2451.65	-48.5
2452.39	-41
2453.12	-40
2453.86	-47
2454.59	-34
2455.33	-21.5
2456.06	-34
2456.79	-38.5
2457.53	-27.5
2458.26	-28
2459	-22
2459.73	-48.5
2460.46	-36
2461.2	-52
2461.93	-47.5
2462.66	-32
2463.4	-34.5
2464.13	-28
2464.86	-37.5
2465.59	-35
2466.32	-31
2467.06	-36
2467.79	-41
2468.52	-28
2469.25	-43
2469.98	-36.5
2470.71	-30
2471.44	-33.5
2472.17	-36
2472.9	-31.5
2473.63	-20
2474.36	-27.5
2475.09	-35
2475.82	-41
2476.55	-34.5
2477.28	-43
2478.01	-47.5
2478.74	-30
2479.47	-26.5
2480.19	-37
2480.92	-30.5
2481.65	-23.5
2482.38	-34
2483.11	-36.5
2483.83	-43
2484.56	-37
2485.29	-38
2486.01	-43.5
2486.74	-33
2487.47	-29
2488.19	-47
2488.92	-49
2489.65	-29
2490.37	-34
2491.1	-26
2491.82	-42
2492.55	-24
2493.27	-28.25
2494	-34.5
2494.72	-29.5
2495.45	-24.5
2496.17	-26
2496.89	-39
2497.62	-30
2498.34	-26
2499.06	-40
2499.79	-43.5
2500.51	-42
2501.23	-32
2501.96	-36.5
2502.68	-38.5
2503.4	-20
2504.12	-26.5
2504.84	-39
2505.57	-24.5
2506.29	-28
2507.01	-38.5
2507.73	-41.5
2508.45	-40
2509.17	-36
2509.89	-40
2510.61	-32.5
2511.33	-33
2512.05	-58
2512.77	-42
2513.49	-18.5
2514.21	-33
2514.93	-39
2515.65	-29.5
2516.37	-25
2517.09	-45
2517.81	-43
2518.52	-29.5
2519.24	-37
2519.96	-51
2520.68	-36.5
2521.4	-29.5
2522.11	-21
2522.83	-44
2523.55	-44
2524.26	-25
2524.98	-27
2525.7	-35.5
2526.41	-28.5
2527.13	-50
2527.84	-30.5
2528.56	-41
2529.28	-43
2529.99	-30
2530.71	-31
2531.42	-33
2532.14	-17
2532.85	-30
2533.56	-41
2534.28	-36.5
2534.99	-26
2535.71	-41
2536.42	-28
2537.13	-33.5
2537.85	-40
2538.56	-39.5
2539.27	-42.5
2539.98	-26
2540.7	-41
2541.41	-38
2542.12	-42
2542.83	-22
2543.54	-39
2544.26	-34
2544.97	-28
2545.68	-46
2546.39	-37.5
2547.1	-27
2547.81	-30
2548.52	-40
2549.23	-42
2549.94	-28
2550.65	-42
2551.36	-31
2552.07	-29
2552.78	-26
2553.49	-24
2554.2	-38.5
2554.91	-47
2555.61	-27
2556.32	-29.5
2557.03	-43
2557.74	-32.5
2558.45	-34
2559.15	-52
2559.86	-45
2560.57	-26
2561.27	-30
2561.98	-38.5
2562.69	-44.5
2563.39	-37
2564.1	-24
2564.81	-36
2565.51	-33
2566.22	-29
2566.92	-53
2567.63	-28.5
2568.33	-33
2569.04	-31
2569.74	-35
2570.45	-33
2571.15	-62
2571.86	-35
2572.56	-39
2573.26	-26
2573.97	-34
2574.67	-46.5
2575.37	-34.5
2576.08	-33.5
2576.78	-39
2577.48	-34.5
2578.19	-38.5
2578.89	-34
2579.59	-36
2580.29	-32.5
2580.99	-28.5
2581.69	-42
2582.4	-38
2583.1	-33
2583.8	-26
2584.5	-34
2585.2	-45.5
2585.9	-30
2586.6	-33
2587.3	-33.5
2588	-27
2588.7	-33
2589.4	-44
2590.1	-38.5
2590.8	-31
2591.5	-27
2592.19	-45
2592.89	-39
2593.59	-32
2594.29	-36
2594.99	-32
2595.68	-33
2596.38	-27
2597.08	-37
2597.78	-34.5
2598.47	-36
2599.17	-26
2599.87	-37.5
2600.56	-36
2601.26	-37.5
2601.96	-42
2602.65	-25
2603.35	-36
2604.04	-23
2604.74	-48
2605.43	-46.5
2606.13	-28.5
2606.82	-23.5
2607.52	-45
2608.21	-48
2608.91	-24
2609.6	-28.5
2610.29	-39
2610.99	-17.5
2611.68	-18
2612.37	-40
2613.07	-28.5
2613.76	-27.5
2614.45	-12
2615.15	-24
2615.84	-41
2616.53	-38.5
2617.22	-41
2617.91	-30
2618.6	-28.5
2619.3	-28.5
2619.99	-36
2620.68	-37.5
2621.37	-26
2622.06	-39
2622.75	-41
2623.44	-29
2624.13	-23
2624.82	-44
2625.51	-40
2626.2	-28.5
2626.89	-39
2627.58	-60
2628.27	-34.5
2628.96	-41.5
2629.64	-29
2630.33	-32
2631.02	-26.5
2631.71	-28.5
2632.4	-57
2633.08	-38
2633.77	-28
2634.46	-30
2635.15	-27.5
2635.83	-31
2636.52	-23.5
2637.21	-34
2637.89	-29.5
2638.58	-46
2639.26	-27.5
2639.95	-36
2640.64	-39
2641.32	-27.5
2642.01	-21.5
2642.69	-37
2643.38	-27
2644.06	-36.5
2644.75	-48
2645.43	-31
2646.11	-25
2646.8	-32.5
2647.48	-40
2648.16	-35.5
2648.85	-28.5
2649.53	-38
2650.21	-34
2650.9	-30
2651.58	-24.5
2652.26	-36
2652.94	-34
2653.63	-16.5
2654.31	-21.5
2654.99	-38
2655.67	-26
2656.35	-27.5
2657.03	-26.5
2657.71	-32
2658.39	-30.5
2659.08	-35
2659.76	-36
2660.44	-33
2661.12	-24
2661.8	-27.5
2662.48	-32.5
2663.15	-24
2663.83	-28.5
2664.51	-27
2665.19	-42
2665.87	-35.5
2666.55	-24
2667.23	-52
2667.91	-26
2668.58	-33.5
2669.26	-40
2669.94	-38
2670.62	-41.5
2671.29	-23.5
2671.97	-24.5
2672.65	-33
2673.32	-20.5
2674	-19
2674.68	-38.5
2675.35	-30.5
2676.03	-24
2676.7	-41
2677.38	-35
2678.06	-39
2678.73	-30
2679.41	-33
2680.08	-33.5
2680.75	-27.5
2681.43	-34
2682.1	-43
2682.78	-27
2683.45	-28
2684.12	-30
2684.8	-35.5
2685.47	-30
2686.14	-25.5
2686.82	-32
2687.49	-41.5
2688.16	-18
2688.83	-36
2689.51	-43
2690.18	-36
2690.85	-26.5
2691.52	-31.5
2692.19	-28
2692.86	-28
2693.54	-25.9968
2694.21	-45.9205
2694.88	-37.5476
2695.55	-32.0065
2696.22	-30.5976
2696.89	-33.0565
2697.56	-28.8979
2698.23	-25.706
2698.9	-34.4359
2699.57	-37.3726
2700.24	-32.6981
2700.91	-20.805
2701.57	-33.1597
2702.24	-35.518
2702.91	-23.1755
2703.58	-35.1044
2704.25	-44.4606
2704.92	-23.406
2705.58	-29.3725
2706.25	-30.256
2706.92	-37.8078
2707.58	-21.4102
2708.25	-28.0925
2708.92	-26.9075
2709.59	-31.3365
2710.25	-24.9213
2710.92	-30.3241
2711.58	-29.027
2712.25	-25.034
2712.92	-19.2637
2713.58	-42.0852
2714.25	-33.7517
2714.91	-26.2879
2715.58	-22.5452
2716.24	-34.3738
2716.91	-22.9741
2717.57	-22.7341
2718.23	-34.2316
2718.9	-45.2326
2719.56	-32.3059
2720.23	-31.0749
2720.89	-27.2168
2721.55	-24.1339
2722.22	-20.819
2722.88	-17.7076
2723.54	-20.1301
2724.2	-28.5356
2724.87	-22.9458
2725.53	-21.7408
2726.19	-25.7867
2726.85	-19.9173
2727.51	-20.7757
2728.18	-26.6709
2728.84	-23.7638
2729.5	-31.0095
2730.16	-26.1307
2730.82	-28.3416
2731.48	-26.6082
2732.14	-31.2169
2732.8	-26.2464
2733.46	-27.4482
2734.12	-24.1291
2734.78	-31.0156
2735.44	-22.4395
2736.1	-28.3469
2736.76	-21.6712
2737.42	-23.5484
2738.07	-22.3453
2738.73	-27.267
2739.39	-25.0213
2740.05	-27.7553
2740.71	-26.6553
2741.37	-26.3427
2742.02	-25.7383
2742.68	-29.9936
2743.34	-28.7093
2743.99	-19.824
2744.65	-15.0991
2745.31	-23.7541
2745.96	-31.7176
2746.62	-24.2357
2747.28	-19.031
2747.93	-27.3614
2748.59	-26.3715
2749.24	-29.7642
2749.9	-24.0335
2750.55	-22.4174
2751.21	-22.8102
2751.86	-23.4255
2752.52	-32.3793
2753.17	-20.2374
2753.83	-19.6909
2754.48	-20.3409
2755.14	-20.5816
2755.79	-18.8679
2756.44	-23.4378
2757.1	-17.6126
2757.75	-16.9788
2758.4	-24.4912
2759.05	-20.3575
2759.71	-25.7486
2760.36	-29.1558
2761.01	-21.1606
2761.66	-25.869
2762.32	-18.5242
2762.97	-42.2821
2763.63	-23
2764.32	-28.5
2765.01	-30
2765.69	-26
2766.38	-12
2767.07	-11
2767.75	-22
2768.44	-15.5
2769.12	-16.5
2769.81	-11
2770.49	-2
2771.18	-14.5
2771.87	-34
2772.55	-19
2773.24	-22
2773.92	-23.5
2774.6	-3.5
2775.29	-36
2775.97	-14
2776.66	-16
2777.34	-9
2778.03	-24
2778.71	-17.5
2779.39	-22
2780.08	-16
2780.76	-25
2781.44	-20
2782.12	0
2782.81	-21
2783.49	-22
2784.17	-24
2784.85	-32
2785.54	-15
2786.22	-23
2786.9	1
2787.58	-12
2788.26	-32
2788.94	-16.5
2789.63	-26
2790.31	-31
2790.99	-10.5
2791.67	-19.5
2792.35	-13.5
2793.03	-29
2793.71	-19.5
2794.39	-17.5
2795.07	-25
2795.75	-32
2796.43	-17.5
2797.11	-13
2797.79	-6
2798.46	-13
2799.14	-18
2799.82	-24
2800.5	-17
2801.18	-16
2801.86	-15.5
2802.54	-15
2803.21	-26
2803.89	-30.5
2804.57	-10
2805.25	-14
2805.92	-31
2806.6	-19.5
2807.28	-14
2807.95	-16
2808.63	-30
2809.31	-3
2809.98	-21
2810.66	-25.5
2811.34	-22
2812.01	-18
2812.69	-24
2813.36	-16.5
2814.04	-22
2814.71	-12
2815.39	-18
2816.06	-13
2816.74	-17.5
2817.41	-31
2818.09	-22
2818.76	-21
2819.44	-9
2820.11	-20
2820.78	-20
2821.46	-12.5
2822.13	-33
2822.8	-15
2823.48	-17.5
2824.15	-4.5
2824.82	-36
2825.49	-27.5
2826.17	-21
2826.84	-25
2827.51	-15
2828.18	-18.5
2828.86	-12
2829.53	-33
2830.2	-18.5
2830.87	-20
2831.54	-13.5
2832.21	-17
2832.88	-19
2833.55	-22.5
2834.22	-13
2834.9	-17
2835.56	-23.5
2836.23	-19.5
2836.91	-33
2837.57	-15.5
2838.24	-31
2838.91	-10
2839.58	-14
2840.25	-19.5
2840.92	-24.5
2841.59	-24
2842.26	-20
2842.93	-24.5
2843.6	-3
2844.26	-22
2844.93	-9.5
2845.6	-7
2846.27	-12
2846.93	-3.5
2847.6	-12
2848.27	-15
2848.94	-11
2849.6	-18
2850.27	-15
2850.94	-7.5
2851.6	-8
2852.27	-8.5
2852.94	-9
2853.6	3.5
2854.27	-9
2854.93	4
2855.6	-8.5
2856.26	-3
2856.93	-10
2857.59	-8
2858.26	-2.5
2858.92	-19
2859.59	-13.5
2860.25	-15
2860.92	-15
2861.58	6
2862.24	-18.5
2862.91	-14.5
2863.57	-21
2864.23	-22
2864.9	-18
2865.56	-19
2866.22	-5.5
2866.89	6.5
2867.55	-17
2868.21	-12
2868.87	-8
2869.54	-23.5
2870.2	-27
2870.86	-19
2871.52	-4
2872.18	-24.5
2872.84	-29
2873.51	-4
2874.17	-22.5
2874.83	-15
2875.49	-15
2876.15	-22.5
2876.81	-16
2877.47	-20.5
2878.13	-12
2878.79	-2
2879.45	-25
2880.11	-7
2880.77	-11.5
2881.43	-23.5
2882.09	-15.5
2882.75	-11
2883.4	-12
2884.06	-20.5
2884.72	-25.5
2885.38	-6
2886.04	-16
2886.7	-27.5
2887.35	-16.5
2888.01	-23
2888.67	-27
2889.33	-20.5
2889.98	-20
2890.64	-21.5
2891.3	-15.5
2891.95	-21
2892.61	0.5
2893.27	-15
2893.92	-22
2894.58	-22
2895.23	-19.5
2895.89	-25
2896.55	-17.5
2897.2	-12
2897.86	-19
2898.51	-28
2899.17	-11.5
2899.82	-15
2900.48	-24
2901.13	-32.5
2901.79	-28
2902.44	-24
2903.09	-25.5
2903.75	-16
2904.4	-14
2905.05	-13.5
2905.71	-25
2906.36	-7
2907.01	-37
2907.67	-22.5
2908.32	-20
2908.97	-31
2909.63	-16
2910.28	-14
2910.93	-10
2911.58	-23
2912.23	-25.5
2912.88	-20.5
2913.54	-18
2914.19	-5
2914.84	-21
2915.49	-29
2916.14	-22
2916.79	-14.5
2917.44	-21
2918.09	-24
2918.74	-15
2919.39	-12
2920.04	-34
2920.69	-17.5
2921.34	-26
2921.99	-24.5
2922.64	-24
2923.29	-19
2923.94	-23
2924.59	-29
2925.23	-16
2925.88	-7.5
2926.53	-26.5
2927.18	-32
2927.83	-24
2928.48	-28
2929.12	-31.5
2929.77	-11
2930.42	-18
2931.07	-18
2931.71	-23
2932.36	-22
2933.01	-13
2933.65	-11.5
2934.3	-39
2934.95	-28
2935.59	-19
2936.24	-23.5
2936.88	-26
2937.53	-20
2938.17	-18.5
2938.82	-16
2939.46	-22
2940.11	-25
2940.75	-24.5
2941.4	-19.5
2942.04	-34
2942.69	-19
2943.33	-21.5
2943.98	-18.5
2944.62	-18
2945.26	-33
2945.91	-30.5
2946.55	-32
2947.19	-14
2947.84	-27
2948.48	-40
2949.12	-48
2949.76	-20
2950.41	-18
2951.05	-35
2951.69	-27
2952.33	-26.5
2952.98	-28
2953.62	-33.5
2954.26	-28.5
2954.9	-30.5
2955.54	-24
2956.18	-26
2956.82	-20
2957.46	-36
2958.1	-21.5
2958.74	-33
2959.38	-35
2960.02	-28
2960.66	-30
2961.3	-23
2961.94	-27.5
2962.58	-24
2963.22	-19
2963.86	-28
2964.5	-37.5
2965.14	-18
2965.78	-38
2966.42	-39
2967.05	-29.5
2967.69	-45
2968.33	-30.5
2968.97	-37
2969.61	-28
2970.24	-29
2970.88	-32.5
2971.52	-34.5
2972.15	-36.5
2972.79	-42
2973.43	-32
2974.06	-33.5
2974.7	-38
2975.34	-35
2975.97	-43.5
2976.61	-40.5
2977.24	-52
2977.88	-22.5
2978.52	-32.5
2979.15	-32.5
2979.79	-32
2980.42	-43.5
2981.06	-30
2981.69	-22
2982.32	-28.5
2982.96	-36
2983.59	-36
2984.23	-39
2984.86	-30
2985.49	-35.5
2986.13	-32
2986.76	-34
2987.39	-41.5
2988.03	-31.5
2988.66	-41
2989.29	-30.5
2989.93	-47
2990.56	-64
2991.19	-53
2991.82	-28
2992.45	-39.5
2993.09	-31
2993.72	-40
2994.35	-38.5
2994.98	-33
2995.61	-23
2996.24	-39
2996.87	-37
2997.5	-35
2998.14	-28
2998.77	-31.5
2999.4	-28
3000.03	-35.5
3000.66	-52
3001.29	-46
3001.91	-31
3002.54	-34
3003.17	-38.5
3003.8	-47
3004.43	-28
3005.06	-40
3005.69	-34
3006.32	-28
3006.95	-49
3007.57	-23
3008.2	-29
3008.83	-21
3009.46	-30
3010.08	-25.5
3010.71	-49
3011.34	-45
3011.97	-42
3012.59	-39.5
3013.22	-22.5
3013.85	-47
3014.47	-39
3015.1	-35.5
3015.72	-40
3016.35	-21.5
3016.98	-42.5
3017.6	-34
3018.23	-24
3018.85	-24
3019.48	-36
3020.1	-34
3020.73	-24
3021.35	-24.5
3021.98	-38.5
3022.6	-36
3023.23	-33
3023.85	-34.5
3024.47	-35.5
3025.1	-54
3025.72	-40
3026.34	-29
3026.97	-38
3027.59	-36
3028.21	-29.5
3028.84	-38.5
3029.46	-34
3030.08	-21
3030.7	-26
3031.32	-48
3031.95	-33
3032.57	-35.5
3033.19	-31
3033.81	-44
3034.43	-45
3035.05	-29
3035.68	-38
3036.3	-30.5
3036.92	-36
3037.54	-42
3038.16	-44
3038.78	-50
3039.4	-34
3040.02	-34.5
3040.64	-36
3041.26	-45
3041.88	-25
3042.5	-36
3043.12	-39
3043.73	-21.5
3044.35	-37.5
3044.97	-28.5
3045.59	-37
3046.21	-36
3046.83	-33
3047.44	-36
3048.06	-49
3048.68	-40
3049.3	-34.5
3049.92	-33
3050.53	-32
3051.15	-33
3051.77	-25
3052.38	-47
3053	-32.5
3053.62	-26.5
3054.23	-54
3054.85	-29
3055.46	-31.5
3056.08	-32
3056.7	-27
3057.31	-35
3057.93	-31
3058.54	-32
3059.16	-41
3059.77	-36.5
3060.39	-37.5
3061	-32
3061.61	-25.5
3062.23	-35
3062.84	-23
3063.46	-33
3064.07	-36
3064.68	-37.5
3065.3	-47
3065.91	-22
3066.52	-30.5
3067.14	-41.5
3067.75	-32
3068.36	-41
3068.98	-40
3069.59	-39
3070.2	-39
3070.81	-34
3071.42	-47.5
3072.04	-33.5
3072.65	-51
3073.26	-26.5
3073.87	-30.5
3074.48	-28.5
3075.09	-39
3075.7	-39.5
3076.31	-30
3076.92	-31
3077.53	-32
3078.14	-40
3078.75	-33
3079.36	-55
3079.97	-34
3080.58	-34
3081.19	-31
3081.8	-31.5
3082.41	-34.5
3083.02	-36.5
3083.63	-35
3084.24	-35.5
3084.84	-50
3085.45	-34.5
3086.06	-44
3086.67	-36.5
3087.28	-36
3087.88	-34
3088.49	-33.5
3089.1	-31.5
3089.71	-28.5
3090.31	-26
3090.92	-38.5
3091.53	-41.5
3092.13	-24
3092.74	-46
3093.34	-35
3093.95	-26.5
3094.56	-19
3095.16	-37
3095.77	-48.5
3096.37	-46
3096.98	-41
3097.58	-38
3098.19	-36.5
3098.79	-50
3099.4	-41
3100	-28.5
3100.61	-26.5
3101.21	-43
3101.81	-43.5
3102.42	-38
3103.02	-36
3103.63	-37
3104.23	-32.5
3104.83	-32
3105.43	-37.5
3106.04	-48
3106.64	-33.5
3107.24	-31
3107.85	-34
3108.45	-31
3109.05	-40
3109.65	-36
3110.25	-48
3110.86	-29.5
3111.46	-36
3112.06	-30
3112.66	-45
3113.26	-39
3113.86	-30
3114.46	-39
3115.06	-41.5
3115.66	-39.5
3116.26	-42
3116.86	-37.5
3117.46	-35.5
3118.06	-40.5
3118.66	-43
3119.26	-55
3119.86	-30.5
3120.46	-49
3121.06	-35
3121.66	-35
3122.26	-41.5
3122.85	-30
3123.45	-25
3124.05	-45.5
3124.65	-32.5
3125.25	-51
3125.84	-30.5
3126.44	-34.5
3127.04	-29
3127.64	-43
3128.23	-31
3128.83	-35.5
3129.43	-44
3130.02	-31
3130.62	-31
3131.22	-35.5
3131.81	-27
3132.41	-32
3133	-40
3133.6	-43
3134.19	-45
3134.79	-23.5
3135.39	-40.5
3135.98	-36.5
3136.58	-29.5
3137.17	-37
3137.76	-40
3138.36	-39
3138.95	-36
3139.55	-33
3140.14	-31
3140.73	-26
3141.33	-39.5
3141.92	-46
3142.51	-27.5
3143.11	-28
3143.7	-31.5
3144.29	-27
3144.89	-33
3145.48	-27
3146.07	-29.5
3146.66	-37
3147.26	-40.5
3147.85	-37.5
3148.44	-39.5
3149.03	-44
3149.62	-31.5
3150.21	-28.5
3150.8	-34
3151.39	-54
3151.99	-32
3152.58	-38
3153.17	-49
3153.76	-28
3154.35	-43.5
3154.94	-32
3155.53	-38
3156.12	-29.5
3156.71	-27
3157.29	-43
3157.88	-40
3158.47	-34.5
3159.06	-29.5
3159.65	-33
3160.24	-22.5
3160.83	-40
3161.42	-28
3162	-28
3162.59	-31.5
3163.18	-34.5
3163.77	-45.5
3164.35	-44
3164.94	-39
3165.53	-33
3166.12	-38
3166.7	-21
3167.29	-44.5
3167.88	-35.5
3168.46	-47
3169.05	-29
3169.64	-43
3170.22	-30
3170.81	-48
3171.39	-32.5
3171.98	-44.5
3172.56	-24
3173.15	-28
3173.73	-38.5
3174.32	-36.5
3174.9	-38
3175.49	-35.5
3176.07	-32.5
3176.65	-30.5
3177.24	-32
3177.82	-36.5
3178.41	-46
3178.99	-27
3179.57	-28.5
3180.16	-31.5
3180.74	-23
3181.32	-31
3181.91	-28.5
3182.49	-44.5
3183.07	-38
3183.65	-40
3184.23	-26.5
3184.82	-38.5
3185.4	-45
3185.98	-25
3186.56	-32
3187.14	-33
3187.72	-35
3188.3	-23
3188.89	-35
3189.47	-26
3190.05	-31.5
3190.63	-33
3191.21	-31
3191.79	-26
3192.37	-39
3192.95	-35
3193.53	-28
3194.11	-35.5
3194.69	-33
3195.26	-32
3195.84	-28
3196.42	-33
3197	-37.5
3197.58	-33
3198.16	-24
3198.74	-24
3199.31	-34.5
3199.89	-42
