100.582	411
101.867	382
103.152	396.5
104.437	361
105.721	374
107.004	368
108.287	339.5
109.571	332
110.853	353.5
112.136	341
113.418	325.5
114.7	323.5
115.981	345.5
117.262	317.5
118.543	307
119.823	331
121.103	320
122.383	298.5
123.663	261
124.942	303
126.221	307
127.499	295
128.777	277
130.056	302
131.333	265
132.61	281
133.887	279
135.163	285.5
136.439	272.5
137.715	282
138.992	290
140.267	235.5
141.541	257.5
142.816	239
144.09	245
145.364	238
146.637	238
147.911	238.5
149.184	222.5
150.457	220
151.729	235
153.001	233.5
154.273	208
155.544	197
156.815	216.5
158.086	189.5
159.356	188
160.626	199
161.896	190
163.165	202
164.434	185.5
165.703	170
166.971	198.5
168.24	182.5
169.507	168
170.774	160
172.042	159.5
173.309	158
174.575	157
175.841	163.5
177.107	158
178.373	146
179.637	157.5
180.902	139
182.167	146
183.431	131
184.695	136
185.958	146
187.222	127
188.485	148
189.747	135
191.009	142.5
192.272	138
193.534	143
194.795	146.5
196.055	131
197.316	123
198.577	132
199.837	117
201.096	127
202.356	125
203.615	142
204.873	139
206.132	128.5
207.39	133
208.648	131
209.905	138.5
211.162	132.5
212.419	120
213.675	108.5
214.932	103
216.187	136
217.443	119
218.697	118.5
219.953	114
221.207	114.5
222.462	106.5
223.715	99
224.969	121.5
226.222	132.5
227.475	100
228.727	108
229.98	92
231.232	104
232.483	102
233.734	98
234.986	99
236.236	122
237.486	128
238.737	95
239.986	123.5
241.235	114
242.484	118.5
243.733	137
244.981	134
246.229	145.5
247.477	146
248.725	171
249.971	171.5
251.219	184
252.465	155
253.711	142.5
254.957	124
256.203	83
257.448	120
258.693	135
259.937	118
261.181	117
262.425	101
263.669	111
264.912	104
266.155	107
267.398	103
268.64	92
269.881	103
271.123	102
272.364	88
273.605	102.5
274.846	77
276.086	83
277.326	94
278.566	61
279.806	83
281.045	95.5
282.283	64
283.522	92.5
284.76	101
285.998	83
287.235	83.5
288.473	73
289.71	77
290.946	82
292.182	87.5
293.418	89
294.654	80.5
295.888	59
297.123	71
298.358	81
299.592	81.5
300.826	74.5
302.06	32
303.293	74
304.526	72
305.759	67
306.991	57
308.223	68
309.455	56
310.687	51
311.917	57
313.148	65
314.379	67
315.609	48.5
316.839	76
318.068	70.5
319.297	66
320.526	47
321.754	68
322.982	56.5
324.21	61
325.438	66
326.665	51
327.892	64.5
329.118	66
330.345	75
331.571	55.5
332.797	52
334.022	43
335.247	53
336.471	57
337.696	53
338.92	73.5
340.144	61
341.367	55
342.591	55
343.813	49.5
345.036	39.5
346.257	50
347.48	41
348.701	64.5
349.922	50.5
351.143	61
352.363	55
353.583	54.5
354.803	40
356.023	39
357.243	67
358.462	47.5
359.68	49
360.899	32
362.117	49
363.334	41
364.551	49
365.769	70.5
366.986	52
368.202	38
369.418	32
370.633	56
371.849	37
373.065	40
374.279	44.5
375.494	54
376.708	39
377.921	51
379.136	52.5
380.349	40
381.562	40
382.774	41
383.987	39.5
385.198	37
386.41	44
387.621	25
388.832	30
390.043	24
391.253	38
392.463	36
393.674	31
394.883	19
396.092	43
397.301	48
398.509	52
399.717	31
400.925	35
402.133	40
403.34	35.5
404.547	45.5
405.753	42.5
406.96	31
408.165	46
409.371	46.5
410.576	18.5
411.781	22.5
412.986	34
414.191	29
415.394	26.5
416.598	28
417.802	28
419.005	40
420.208	24
421.41	36
422.613	32
423.815	34
425.016	27.5
426.217	11
427.418	31
428.619	25
429.818	13
431.019	35.5
432.218	46
433.418	33.5
434.617	25
435.815	26
437.014	28.5
438.212	30.5
439.41	35.5
440.607	39
441.805	29.5
443.001	-3
444.198	23
445.394	41.5
446.59	21
447.785	29.5
448.98	34
450.175	22.5
451.37	27.5
452.564	12
453.758	18
454.952	28.5
456.145	21
457.339	24
458.531	27.5
459.724	13
460.916	6
462.107	16.5
463.299	24
464.49	16.5
465.681	0
466.871	28.5
468.062	22
469.252	11.5
470.441	16.5
471.631	31
472.819	13
474.008	16
475.196	27
476.385	24
477.572	18
478.76	17
479.946	30
481.133	13
482.32	6.5
483.506	21
484.692	24
485.877	10.5
487.063	20.5
488.247	15
489.432	14.5
490.616	25.5
491.8	32
492.984	22
494.167	25.5
495.35	12
496.533	19
497.715	16
498.897	29.5
500.079	8
501.26	18
502.441	14
503.622	17.5
504.803	19.5
505.983	26.5
507.163	10
508.342	10
509.522	12
510.701	23
511.88	10
513.058	3
514.236	18
515.413	14.5
516.591	-3.5
517.768	20.5
518.945	17
520.121	7
521.297	-6
522.473	10
523.648	12.5
524.823	6.5
525.998	16
527.173	7.5
528.348	11.5
529.522	7
530.694	11.5
531.868	23.5
533.041	14.5
534.214	-2
535.386	25
536.558	18
537.731	6.5
538.902	-4
540.073	19
541.244	12.5
542.414	4.5
543.585	2
544.754	22
545.924	5
547.094	4
548.262	16.5
549.431	10.5
550.6	-8.5
551.767	20
552.935	7
554.103	12
555.27	8
556.436	13.5
557.603	8
558.769	0.5
559.935	11
561.1	26.5
562.266	7.5
563.431	8.5
564.595	15
565.759	10
566.924	6
568.087	15
569.25	13
570.414	5.5
571.576	5.5
572.739	-1.5
573.901	9.5
575.062	12.5
576.224	10
577.385	-2
578.546	9.5
579.707	-6.5
580.867	-6
582.028	9
583.187	23
584.347	0.5
585.505	9.5
586.664	18
587.822	2.5
588.98	8.5
590.138	9.5
591.296	14.5
592.453	12.5
593.61	12
594.767	13
595.922	11.5
597.079	-4
598.234	17
599.39	6
600.544	20
601.699	12
602.854	8
604.008	23
605.161	11
606.315	3
607.468	12
608.621	14
609.774	4.5
610.926	-18
612.078	2.5
613.229	0.5
614.381	-3
615.532	7
616.682	1.5
617.833	-14
618.983	4.5
620.133	3.5
621.282	-1
622.431	-5.5
623.58	-2
624.729	1.5
625.877	5
627.025	-25
628.172	14
629.32	-7
630.467	8.5
631.614	9.5
632.76	3
633.906	3
635.052	-10
636.197	-4
637.343	6.5
638.488	14
639.632	-4
640.776	3
641.92	4
643.064	-5
644.207	-2
645.35	5.5
646.493	-6
647.635	-4
648.777	3
649.919	-1.5
651.06	4
652.202	-1.5
653.342	11
654.483	-14
655.624	-15.5
656.764	-2
657.903	-1.5
659.043	-5
660.181	5
661.32	-7
662.459	-15.5
663.596	-19
664.735	-10
665.872	-14
667.009	10
668.146	-4
669.282	-10
670.419	-7
671.555	-11
672.69	-9
673.826	-6
674.96	5.5
676.096	6
677.23	-1
678.364	-3
679.498	-11.5
680.631	-11.5
681.765	4.5
682.897	6.5
684.03	11.5
685.163	-4
686.294	-5
687.426	-1.5
688.557	-6
689.689	4
690.819	-16
691.949	5
693.079	1
694.21	22.5
695.339	3
696.468	2
697.597	-14
698.725	11.5
699.854	7.5
700.982	0.5
702.11	15
703.237	17.5
704.364	8.5
705.491	10.5
706.617	-4
707.744	9.5
708.87	-5.5
709.995	-11
711.12	17
712.245	16.5
713.37	7.5
714.495	0
715.618	12.5
716.742	8
717.865	-9.5
718.989	0
720.112	23
721.234	-8
722.356	8
723.478	3
724.6	14.5
725.721	5.5
726.842	7
727.962	17.5
729.083	-11
730.203	-6
731.323	4
732.442	6.5
733.562	2.5
734.681	9
735.799	10.5
736.917	-9
738.036	7.5
739.153	-6
740.27	11
741.387	-8.5
742.505	-3
743.62	7
744.736	1.5
745.853	-5
746.968	1.5
748.083	-3.5
749.199	15
750.313	-10.5
751.427	-4
752.541	7
753.655	0.5
754.768	-1
755.882	17
756.994	4.5
758.107	0
759.219	2
760.331	-10.5
761.443	-2
762.554	12.5
763.665	11.5
764.776	15
765.885	-8
766.996	0
768.106	-1
769.215	-2.5
770.324	2.5
771.434	1
772.542	4
773.65	13.5
774.758	-2
775.865	1
776.973	15
778.081	0
779.187	-6
780.293	11
781.399	0.5
782.506	-30
783.611	4.5
784.716	0
785.821	-5
786.926	1.5
788.03	7
789.134	7
790.238	-1
791.341	-25
792.444	10
793.547	-20
794.65	2
795.752	-19
796.854	-6
797.956	5.5
799.057	4
800.158	6
801.259	13.5
802.359	-5.5
803.459	-12
804.559	11
805.659	14.5
806.758	-2.5
807.857	-4
808.955	4.5
810.053	1
811.152	-9
812.25	19
813.347	25
814.444	3
815.541	-1
816.638	13
817.733	5
818.83	0
819.925	17
821.02	17.5
822.115	13.5
823.21	6
824.305	26.5
825.398	8
826.492	20.5
827.586	29.5
828.679	29.5
829.772	15
830.865	24
831.957	21
833.049	36.5
834.141	20.5
835.232	32
836.323	32
837.414	29
838.505	26
839.595	35
840.685	46
841.774	41
842.864	36
843.952	27
845.041	25.5
846.129	-3
847.218	24
848.306	36.5
849.393	35.5
850.48	35
851.567	40
852.654	23
853.74	26.5
854.826	16.5
855.912	29
856.997	22.5
858.082	25.5
859.167	18
860.252	29
861.336	26.5
862.42	17.5
863.504	16
864.587	36.5
865.67	26
866.753	31
867.835	2
868.917	34.5
869.999	30.5
871.081	20
872.162	34.5
873.243	19.5
874.323	4
875.404	43
876.484	35
877.564	23
878.643	10
879.722	36
880.802	20
881.88	21
882.958	24
884.036	20.5
885.113	30
886.191	25.5
887.268	12
888.344	2
889.421	28
890.498	15
891.573	26
892.649	17.5
893.724	17.5
894.799	19
895.874	28
896.948	13.5
898.022	16
899.096	24
900.17	35.5
901.243	19.5
902.315	-3
903.389	3
904.461	28
905.533	12
906.605	17
907.676	38.5
908.747	21
909.818	-5
910.888	33
911.958	18
913.028	23
914.098	20
915.167	13
916.237	11.5
917.306	28.5
918.374	-2
919.442	25.5
920.51	4.5
921.577	12
922.644	12
923.711	17
924.778	9.5
925.845	2
926.911	14
927.977	12
929.042	8
930.107	-15
931.173	19.5
932.237	12.5
933.301	9
934.365	14
935.429	18
936.492	12
937.556	-2
938.619	26.5
939.681	13
940.743	11
941.805	20.5
942.867	17
943.928	19
944.989	-4
946.05	13
947.11	20.5
948.17	13
949.23	13
950.29	21.5
951.349	18
952.409	15
953.467	12
954.526	23
955.584	3.5
956.641	7
957.699	38
958.756	6
959.813	14
960.869	6
961.926	12
962.982	5
964.038	24
965.094	23
966.149	24
967.204	21.5
968.258	3
969.312	23
970.366	23.5
971.42	-22
972.473	33
973.527	13
974.58	11.5
975.631	17
976.684	26.5
977.736	19
978.787	10.5
979.839	-16
980.89	16
981.94	7
982.991	2
984.041	1
985.091	2
986.141	-5
987.19	0
988.239	-9
989.288	-2
990.336	-1
991.384	-21
992.432	-17
993.48	11
994.527	-7
995.574	-3
996.62	18
997.666	1
998.713	-6
999.759	11
1000.8	19.5
1001.85	5.5
1002.89	-22
1003.94	22
1004.98	-0.5
1006.03	5
1007.07	17.5
1008.11	11
1009.16	-6.5
1010.2	0
1011.24	14
1012.29	-4
1013.33	7
1014.37	-5
1015.41	4.5
1016.45	11
1017.49	2.5
1018.53	9
1019.57	20.5
1020.61	3
1021.65	-0.5
1022.69	12
1023.73	17.5
1024.77	-4
1025.81	-6
1026.85	5
1027.88	-1
1028.92	-8
1029.96	10
1031	24
1032.03	1
1033.07	-5
1034.1	14
1035.14	8.5
1036.18	2.5
1037.21	-6
1038.25	16
1039.28	4
1040.32	-10
1041.35	18
1042.38	15.5
1043.42	9
1044.45	-1
1045.48	10.5
1046.52	2.5
1047.55	-6
1048.58	-5
1049.61	17.5
1050.64	8.5
1051.67	1
1052.71	-15
1053.74	9
1054.77	6.5
1055.8	6
1056.83	18.5
1057.85	10.5
1058.88	8
1059.91	23
1060.94	21
1061.97	23.5
1063	7
1064.03	26
1065.05	18.5
1066.08	24.5
1067.11	15.5
1068.13	14
1069.16	24
1070.19	12
1071.21	12
1072.24	31
1073.26	16
1074.29	32
1075.31	41
1076.34	29
1077.36	22
1078.38	24
1079.41	20.5
1080.43	16
1081.45	9
1082.47	29
1083.5	24
1084.52	26
1085.54	21.5
1086.56	28
1087.58	26
1088.6	20
1089.62	14
1090.64	27
1091.66	11.5
1092.68	6
1093.7	7
1094.72	21.5
1095.74	10
1096.76	-1
1097.78	21
1098.79	6.5
1099.81	-2
1100.83	4.5
1101.85	11.5
1102.86	2.5
1103.88	6
1104.9	-7
1105.91	14
1106.93	-5.5
1107.94	1
1108.96	7
1109.97	0.5
1110.99	3.5
1112	1.5
1113.01	7.5
1114.03	3
1115.04	-9
1116.05	-2
1117.07	-2.5
1118.08	-3
1119.09	-18
1120.1	15
1121.11	3
1122.13	-2
1123.14	-12
1124.15	5
1125.16	-6.5
1126.17	-21
1127.18	-3
1128.19	-6.5
1129.2	-1.5
1130.2	-5.5
1131.21	1
1132.22	-10
1133.23	-5.5
1134.24	-7
1135.25	5
1136.25	-6.5
1137.26	-15
1138.27	-3
1139.27	-7.5
1140.28	-5
1141.28	-9
1142.29	10.5
1143.29	-3
1144.3	-25
1145.3	-12
1146.31	-7.5
1147.31	-11
1148.32	-16
1149.32	-12.9095
1150.32	-9.10706
1151.33	-16.5407
1152.33	-15.096
1153.33	-11.2196
1154.33	-14.2804
1155.33	-12.9419
1156.34	-1.7809
1157.34	11.1839
1158.34	-11.6179
1159.34	-14.5422
1160.34	-3.28439
1161.34	-17.7189
1162.34	-8.11018
1163.34	-22.7698
1164.34	1.6045
1165.34	-9.58329
1166.33	-9.91237
1167.33	-11.7266
1168.33	-10.3358
1169.33	-9.03099
1170.33	-8.84988
1171.32	-9.30984
1172.32	-21.7792
1173.32	-20.7237
1174.31	-9.59146
1175.31	-5.24117
1176.31	-14.6645
1177.3	-6.5951
1178.3	-3.71469
1179.29	-0.448095
1180.29	-13.9483
1181.28	2.69601
1182.27	-7.84099
1183.27	-17.3269
1184.26	-6.67302
1185.25	-13.2797
1186.25	-15.9119
1187.24	-0.31153
1188.23	-7.23356
1189.22	2.69046
1190.22	-0.794979
1191.21	1.005
1192.2	-16.3966
1193.19	-3.26133
1194.18	-7.12142
1195.17	-21.8381
1196.16	-17.5618
1197.15	-5.92032
1198.14	-13.1043
1199.13	-6.41691
1200.12	-2.95427
1201.11	2.12599
1202.09	-15.4793
1203.08	-13.9068
1204.07	-10.78
1205.06	-5.33178
1206.04	-3.26169
1207.03	-10.0303
1208.02	-7.69955
1209	-13.1029
1209.99	0.144788
1210.98	7.24544
1211.96	5.59977
1212.95	-14.2629
1213.93	-8.87175
1214.92	1.83597
1215.9	1.39789
1216.89	-1.32576
1217.87	1.81617
1218.85	1.88235
1219.84	-3.89027
1220.82	-3.91933
1221.8	4.17006
1222.78	2.53519
1223.77	-1.31958
1224.75	-0.599636
1225.73	2.47619
1226.71	1.60833
1227.69	5.28187
1228.67	3.26815
1229.65	6.80752
1230.63	-1.93548
1231.61	1.58784
1232.59	1.01912
1233.57	6.40911
1234.55	5.91113
1235.53	-9.12155
1236.51	3.94374
1237.49	13.8391
1238.46	4.91898
1239.44	9.46024
1240.42	14.6602
1241.4	11.3278
1242.37	19.2972
1243.35	21.8308
1244.32	23.2604
1245.3	25.7673
1246.28	15.847
1247.25	17.9375
1248.23	24.7374
1249.2	26.2702
1250.18	24.694
1251.15	26.9834
1252.12	35.581
1252.72	41
1253.73	41
1254.74	32.5
1255.75	54.5
1256.75	51
1257.76	24
1258.77	46
1259.78	37
1260.79	44
1261.79	43.5
1262.8	69
1263.81	46.5
1264.81	53
1265.82	32
1266.82	38
1267.83	47
1268.83	30
1269.84	48.5
1270.84	48.5
1271.85	39
1272.85	41.5
1273.86	28.5
1274.86	39
1275.86	26
1276.87	26
1277.87	37.5
1278.87	25
1279.88	8
1280.88	18
1281.88	30
1282.88	23
1283.88	34
1284.88	17
1285.88	22
1286.89	28
1287.89	15.5
1288.89	41
1289.89	29
1290.89	5
1291.89	31.5
1292.88	40
1293.88	40
1294.88	33
1295.88	36.5
1296.88	39
1297.88	46.5
1298.88	47.5
1299.87	32
1300.87	63
1301.87	17
1302.86	33
1303.86	48.5
1304.86	24
1305.85	42
1306.85	32.5
1307.85	29
1308.84	27
1309.84	34
1310.83	40.5
1311.83	19.5
1312.82	19
1313.81	14.5
1314.81	31.5
1315.8	14
1316.8	15
1317.79	18
1318.78	6
1319.77	11.5
1320.77	18
1321.76	17.5
1322.75	14
1323.74	10.5
1324.73	2
1325.72	8.5
1326.72	-2
1327.71	-1
1328.7	10
1329.69	4
1330.68	5
1331.67	10.5
1332.66	16.5
1333.65	-1
1334.63	-2
1335.62	0
1336.61	1
1337.6	-6
1338.59	-1
1339.58	-3.5
1340.56	9.5
1341.55	5
1342.54	17
1343.53	-7.5
1344.51	-3
1345.5	-16
1346.48	0.5
1347.47	14
1348.45	-2
1349.44	-1
1350.43	-14.5
1351.41	2
1352.4	-13
1353.38	-6
1354.36	3
1355.35	-5
1356.33	-3.5
1357.31	-29.5
1358.3	-19.5
1359.28	-5
1360.26	0
1361.25	-5.5
1362.23	-13
1363.21	1
1364.19	6
1365.17	-2
1366.15	0
1367.14	-22
1368.12	-6
1369.1	-4
1370.08	-26
1371.06	-4
1372.04	-12.5
1373.02	-19
1373.99	-8
1374.97	-4
1375.95	-4
1376.93	1.5
1377.91	-21.5
1378.89	-16.5
1379.86	-11
1380.84	-6
1381.82	-23
1382.8	-17
1383.77	-22
1384.75	-8
1385.73	-3
1386.7	-9
1387.68	-19
1388.65	-15.5
1389.63	-20.5
1390.6	-11
1391.58	-13
1392.55	-5.5
1393.53	-13.5
1394.5	-14
1395.48	-13
1396.45	-18.5
1397.42	-18
1398.4	-7
1399.37	-13
1400.34	-12.5
1401.31	-14.5
1402.29	-18.5
1403.26	-14
1404.23	-9
1405.2	-8.5
1406.17	-7
1407.14	-9.5
1408.11	0
1409.08	-12
1410.05	-12
1411.02	-14.5
1411.99	-15
1412.96	0
1413.93	0.5
1414.9	-13.5
1415.87	-10
1416.84	0
1417.81	3
1418.78	16
1419.74	-4
1420.71	-13
1421.68	-4.5
1422.65	-10
1423.61	-10
1424.58	2
1425.55	1.5
1426.51	4.5
1427.48	20.5
1428.44	11
1429.41	9
1430.37	11
1431.34	15.5
1432.3	47.5
1433.27	25
1434.23	43
1435.2	57.5
1436.16	54.5
1437.12	55
1438.09	63
1439.05	62.5
1440.01	56.5
1440.97	43
1441.94	41.5
1442.9	55.5
1443.86	29
1444.82	34
1445.78	39
1446.74	30.5
1447.7	29
1448.67	39.5
1449.63	26
1450.59	25.5
1451.55	21
1452.5	14.5
1453.46	15.5
1454.42	29.5
1455.38	20
1456.34	19
1457.3	11
1458.26	5
1459.21	16.5
1460.17	14
1461.13	15
1462.09	13
1463.04	7
1464	3
1464.96	9
1465.91	-3
1466.87	-3.5
1467.82	-3.5
1468.78	0
1469.73	-6
1470.69	-14
1471.64	-20.5
1472.6	-5
1473.55	-9.5
1474.51	-9
1475.46	-5.5
1476.41	-27
1477.37	-14
1478.32	-32
1479.27	-30
1480.23	-20
1481.18	-5.5
1482.13	-20
1483.08	-15
1484.03	-20
1484.98	-24
1485.94	-21
1486.89	-18
1487.84	-22
1488.79	-26
1489.74	-22
1490.69	-18.5
1491.64	-21
1492.59	-11
1493.54	-25
1494.48	-25
1495.43	-28
1496.38	-39
1497.33	-27.5
1498.28	-21
1499.23	-25
1500.17	-32
1501.12	-7.5
1502.07	-25.5
1503.01	-7.5
1503.96	-22
1504.91	-23.5
1505.85	-45
1506.8	-43
1507.74	-32
1508.69	-33.5
1509.64	-30
1510.58	-20
1511.52	-20
1512.47	-19.5
1513.41	-20
1514.36	-18
1515.3	-15.5
1516.24	-28
1517.19	-23
1518.13	-34.5
1519.07	-19.5
1520.01	-33
1520.96	-11
1521.9	-30
1522.84	-17
1523.78	-18
1524.72	-29
1525.66	-24
1526.6	-30.5
1527.55	-16
1528.49	-19.5
1529.43	-23
1530.37	-28
1531.3	-30.5
1532.24	-31.5
1533.18	-29.5
1534.12	-27
1535.06	-25.5
1536	-42
1536.94	-28
1537.88	-25
1538.81	-21
1539.75	-21.5
1540.69	-39
1541.62	-24
1542.56	-25.5
1543.5	-35
1544.43	-35
1545.37	-24
1546.3	-34
1547.24	-26.5
1548.18	-21
1549.11	-26.5
1550.05	-31
1550.98	-33
1551.91	-29.5
1552.85	-23.5
1553.78	-20
1554.72	-21
1555.65	-18
1556.58	-36
1557.51	-37
1558.45	-34
1559.38	-17
1560.31	-20
1561.24	-28.5
1562.17	-27.5
1563.11	-22
1564.04	-33
1564.97	-29
1565.9	-20
1566.83	-42
1567.76	-36.5
1568.69	-39
1569.62	-30
1570.55	-27.5
1571.48	-25
1572.41	-17
1573.34	-21.5
1574.26	-24
1575.19	-20
1576.12	-28
1577.05	-27
1577.98	-23.5
1578.9	-30
1579.83	-22
1580.76	-40.5
1581.68	-27
1582.61	-29
1583.54	-15.5
1584.46	-24.5
1585.39	-35
1586.31	-20
1587.24	-36
1588.16	-36
1589.09	-26.5
1590.01	-19
1590.94	-29
1591.86	-38
1592.78	-19.5
1593.71	-24
1594.63	-18.5
1595.55	-36
1596.48	-20
1597.4	-28
1598.32	-43.5
1599.24	-35
1600.17	-24.5
1601.09	-34
1602.01	-31
1602.93	-33
1603.85	-29
1604.77	-18.5
1605.69	-39
1606.61	-24
1607.53	-35
1608.45	-43
1609.37	-31
1610.29	-22
1611.21	-26
1612.13	-37.5
1613.05	-29
1613.96	-23.5
1614.88	-22.5
1615.8	-24.5
1616.72	-31.5
1617.63	-36.5
1618.55	-35
1619.47	-47
1620.38	-19.5
1621.3	-36.5
1622.22	-29.5
1623.13	-17
1624.05	-26
1624.96	-28
1625.88	-14.5
1626.79	-27
1627.71	-45
1628.62	-43
1629.54	-24.5
1630.45	-28
1631.37	-25.5
1632.28	-20
1633.19	-10
1634.1	-21.5
1635.02	-26
1635.93	-27
1636.84	-12
1637.75	-19
1638.67	-21
1639.58	-16.5
1640.49	-10
1641.4	-12
1642.31	-14.5
1643.22	-9
1644.13	2
1645.04	-8
1645.95	9.5
1646.86	0.5
1647.77	-5
1648.68	1.5
1649.59	12.5
1650.5	31
1651.41	23.5
1652.31	8.5
1653.22	40
1654.13	29.5
1655.04	53.5
1655.95	32
1656.85	40
1657.76	22
1658.67	30.5
1659.57	34
1660.48	17.5
1661.38	14
1662.29	7
1663.2	-2
1664.1	0.5
1665.01	-26
1665.91	-13.5
1666.81	-12
1667.72	-29
1668.62	-27
1669.53	-26
1670.43	-14.5
1671.33	-10
1672.24	-13.5
1673.14	-26.5
1674.04	-29
1674.94	-20
1675.85	-21.5
1676.75	-27
1677.65	-35
1678.55	-34
1679.45	-17
1680.35	-20
1681.25	-27.5
1682.15	-42
1683.05	-24.5
1683.95	-37
1684.85	-38
1685.75	-23.5
1686.65	-17
1687.55	-45
1688.45	-44
1689.35	-20.5
1690.25	-23
1691.15	-45
1692.04	-53
1692.94	-27.5
1693.84	-27
1694.74	-25
1695.63	-28
1696.53	-16
1697.43	-32.5
1698.32	-31
1699.22	-25.5
1700.11	-25.5
1701.01	-21.5
1701.9	-35
1702.8	-23.5
1703.69	-30
1704.59	-41
1705.48	-16
1706.38	-13.5
1707.27	-37
1708.16	-22
1709.06	-18.5
1709.95	-28.5
1710.84	-27
1711.74	-31
1712.63	-26.5
1713.52	-28.5
1714.41	-45
1715.3	-24.5
1716.2	-25
1717.09	-40
1717.98	-33
1718.87	-20
1719.76	-35
1720.65	-28.5
1721.54	-20.5
1722.43	-44
1723.32	-27
1724.21	-40
1725.1	-18.5
1725.99	-46
1726.88	-53
1727.76	-25
1728.65	-13.5
1729.54	-28
1730.43	-33
1731.31	-23.5
1732.2	-14
1733.09	-32
1733.98	-17.5
1734.86	-28
1735.75	-23
1736.63	-35
1737.52	-25.5
1738.41	-25
1739.29	-22
1740.18	-33
1741.06	-36
1741.95	-18.5
1742.83	-10.5
1743.72	-33
1744.6	-14.5
1745.48	-24
1746.37	-29
1747.25	-24
1748.13	-21
1749.02	-26
1749.9	-30
1750.78	-23
1751.66	-22.5
1752.54	-24
1753.43	-21.25
1754.31	-31
1755.19	-11.5
1756.07	-31
1756.95	-36
1757.83	-17
1758.71	-32
1759.59	-26
1760.47	-52
1761.35	-27.5
1762.23	-33
1763.11	-16.5
1763.99	-41
1764.87	-30.5
1765.74	-36
1766.62	-36
1767.5	-25
1768.38	-33
1769.25	-17.5
1770.13	-30
1771.01	-23
1771.89	-35
1772.76	-32.5
1773.64	-26.5
1774.51	-25
1775.39	-35
1776.27	-30
1777.14	-33
1778.02	-30.5
1778.89	-23
1779.76	-34.5
1780.64	-35.5
1781.51	-36
1782.39	-25
1783.26	-27.5
1784.13	-28.5
1785.01	-41
1785.88	-32
1786.75	-25
1787.63	-38
1788.5	-28
1789.37	-41.5
1790.24	-19
1791.11	-29
1791.98	-18.5
1792.86	-33.5
1793.73	-23
1794.6	-78
1795.47	-38
1796.34	-21.5
1797.21	-30
1798.08	-38
1798.95	-26
1799.82	-40.5
1800.68	-28
1801.55	-22.5
1802.42	-27
1803.29	-37
1804.16	-41
1805.03	-25.5
1805.89	-27
1806.76	-27.5
1807.63	-28.5
1808.49	-28.5
1809.36	-29
1810.23	-22
1811.09	-27
1811.96	-18.5
1812.83	-24.5
1813.69	-32.5
1814.56	-50
1815.42	-23.5
1816.29	-40
1817.15	-29
1818.02	-29
1818.88	-35
1819.74	-43
1820.61	-31.5
1821.47	-29
1822.33	-32
1823.2	-40
1824.06	-39.5
1824.92	-40
1825.78	-26
1826.65	-42
1827.51	-31
1828.37	-37.5
1829.23	-38
1830.09	-27.5
1830.95	-25.5
1831.81	-30
1832.67	-35.5
1833.53	-42.5
1834.39	-20.5
1835.25	-34.5
1836.11	-21.5
1836.97	-27
1837.83	-26
1838.69	-32
1839.55	-24
1840.41	-27
1841.26	-34.5
1842.12	-29
1842.98	-36.5
1843.84	-21
1844.69	-30
1845.55	-31
1846.41	-32
1847.26	-24.5
1848.12	-37
1848.98	-26
1849.83	-26.5
1850.69	-21.5
1851.54	-36
1852.4	-39
1853.25	-28.5
1854.11	-34
1854.96	-30
1855.82	-24.5
1856.67	-36.5
1857.52	-26
1858.38	-25.5
1859.23	-21.5
1860.08	-31
1860.93	-37
1861.79	-49.5
1862.64	-14
1863.49	-47
1864.34	-35.5
1865.19	-36
1866.05	-42.5
1866.9	-29
1867.75	-26.5
1868.6	-15
1869.45	-37
1870.3	-43
1871.15	-41.5
1872	-22
1872.85	-35
1873.7	-21
1874.55	-27
1875.4	-21
1876.24	-37
1877.09	-25
1877.94	-26.5
1878.79	-21.5
1879.64	-28
1880.48	-18
1881.33	-28
1882.18	-33.5
1883.02	-29
1883.87	-26.5
1884.72	-28.5
1885.56	-24.5
1886.41	-15
1887.25	-35
1888.1	-33
1888.94	-28
1889.79	-31.5
1890.63	-33
1891.48	-45
1892.32	-23.5
1893.17	-39
1894.01	-31
1894.85	-58
1895.7	-29.5
1896.54	-32.5
1897.38	-49
1898.23	-36
1899.07	-36
1899.91	-39
1900.75	-37
1901.59	-44.5
1902.44	-26.5
1903.28	-33
1904.12	-32
1904.96	-30
1905.8	-23
1906.64	-29.5
1907.48	-36
1908.32	-27
1909.16	-33
1910	-48
1910.84	-35
1911.68	-20.5
1912.51	-47
1913.35	-30
1914.19	-23
1915.03	-26.5
1915.87	-18
1916.7	-42.5
1917.54	-42
1918.38	-27
1919.21	-62
1920.05	-27
1920.89	-23.5
1921.72	-35.5
1922.56	-30.5
1923.4	-35
1924.23	-25.5
1925.07	-37
1925.9	-28.5
1926.74	-29
1927.57	-58
1928.41	-42
1929.24	-17
1930.07	-41.5
1930.91	-42
1931.74	-32.5
1932.57	-20
1933.41	-37.5
1934.24	-45
1935.07	-22
1935.9	-33.5
1936.74	-24
1937.57	-22
1938.4	-26
1939.23	-35
1940.06	-41
1940.89	-23.5
1941.72	-29
1942.55	-21.5
1943.38	-46
1944.21	-29
1945.04	-38
1945.87	-30
1946.7	-44
1947.53	-22
1948.36	-29
1949.19	-33.5
1950.02	-22.5
1950.84	-19.5
1951.67	-24
1952.5	-41
1953.33	-25
1954.15	-45.5
1954.98	-20
1955.81	-33
1956.64	-16.5
1957.46	-38
1958.29	-33
1959.11	-16
1959.94	-49
1960.76	-24
1961.59	-29
1962.41	-36
1963.24	-35.5
1964.06	-26.5
1964.89	-30
1965.71	-24
1966.53	-26
1967.36	-36
1968.18	-31
1969	-22.5
1969.83	-26.5
1970.65	-33
1971.47	-23.5
1972.3	-39.5
1973.12	-36
1973.94	-35
1974.76	-28.5
1975.58	-35
1976.4	-33
1977.22	-18
1978.04	-21
1978.86	-28
1979.68	-32
1980.5	-23
1981.32	-41
1982.14	-31.5
1982.96	-29
1983.78	-37.5
1984.6	-34.5
1985.42	-38.5
1986.24	-26.5
1987.06	-22
1987.87	-24
1988.69	-31
1989.51	-40.5
1990.32	-40.5
1991.14	-22.5
1991.96	-44
1992.78	-32
1993.59	-38
1994.41	-35
1995.22	-28.5
1996.04	-27
1996.85	-22.5
1997.67	-23.5
1998.48	-19.0038
1999.3	-34.131
2000.11	-39.0979
2000.93	-23.8042
2001.74	-32.3013
2002.56	-31.5594
2003.37	-24.6888
2004.18	-18.9946
2004.99	-23.1684
2005.81	-29.9786
2006.62	-25.6899
2007.43	-31.5643
2008.25	-29.9793
2009.06	-35.2922
2009.87	-15.9207
2010.68	-28.754
2011.49	-39.6391
2012.3	-26.8605
2013.11	-18.2081
2013.92	-30.2507
2014.73	-32.0996
2015.54	-28.1019
2016.35	-32.1254
2017.16	-35.4212
2017.97	-35.0575
2018.78	-21.1413
2019.59	-30.0035
2020.4	-35.508
2021.21	-33.8795
2022.02	-18.0594
2022.83	-21.3831
2023.63	-27.7036
2024.44	-18.9752
2025.25	-29.9309
2026.06	-30.0537
2026.86	-33.9368
2027.67	-21.7113
2028.48	-29.4055
2029.28	-30.628
2030.09	-28.6051
2030.89	-22.5723
2031.7	-22.4589
2032.5	-26.0217
2033.31	-23.4933
2034.11	-28.499
2034.92	-31.726
2035.72	-27.6233
2036.53	-18.401
2037.33	-22.3861
2038.14	-24.7104
2038.94	-26.019
2039.74	-24.3901
2040.55	-30.8613
2041.35	-32.1515
2042.15	-23.1361
2042.95	-23.3031
2043.76	-30.2728
2044.56	-21.8716
2045.36	-24.4426
2046.16	-19.7793
2046.96	-35.0631
2047.76	-33.8009
2048.56	-28.3874
2049.37	-26.2568
2050.17	-25.7236
2050.97	-25.7157
2051.77	-26.652
2052.57	-36.5285
2053.36	-28.8942
2054.16	-28.812
2054.96	-19.1141
2055.76	-13.9868
2056.56	-26.4462
2057.36	-21.947
2058.16	-30.0506
2058.96	-16.7261
2059.75	-20.8951
2060.55	-20.5392
2061.35	-24.4869
2062.14	-22.5321
2062.94	-29.1988
2063.74	-24.6242
2064.53	-21.3415
2065.33	-16.8287
2066.13	-10.3943
2066.92	-14.3784
2067.72	-14.136
2068.51	-14.8774
2069.31	-18.5104
2070.1	-17.0615
2070.9	-16.2723
2071.69	-23.5509
2072.49	-23.7913
2073.28	-23.0046
2074.07	-19.2035
2074.87	-33.0369
2075.66	-17.445
2076.45	-18.1947
2077.25	-9.77024
2078.04	-22.3814
2078.83	-23.2756
2079.62	-24.0498
2080.41	-15.7587
2081.21	-28.2829
2081.38	-32
2082.2	-19
2083.03	-10.5
2083.86	-12.5
2084.68	-17
2085.51	-21
2086.34	-9
2087.16	-27.5
2087.99	-18
2088.81	-8.5
2089.64	-11.5
2090.46	-9
2091.29	-22.5
2092.11	-19
2092.94	-12
2093.76	-16
2094.58	-17
2095.41	-11
2096.23	-15
2097.06	-24
2097.88	-12.5
2098.7	-7
2099.53	-13.5
2100.35	-11
2101.17	-9.5
2101.99	-17
2102.81	-27.5
2103.64	-6
2104.46	-3
2105.28	-29.5
2106.1	-19.5
2106.92	-5
2107.74	-19
2108.56	-26
2109.38	-19
2110.2	-5
2111.03	-18
2111.84	-32
2112.66	-15
2113.48	-18
2114.3	-45
2115.12	-22
2115.94	-15.5
2116.76	-21
2117.58	-26.5
2118.4	-9
2119.22	-20
2120.03	-12.5
2120.85	-18.5
2121.67	-8
2122.49	-16.5
2123.3	-36.5
2124.12	-6
2124.94	-14.5
2125.76	-25.5
2126.57	-19.5
2127.39	-27.5
2128.2	-27
2129.02	-37
2129.83	-21
2130.65	-11
2131.47	-3
2132.28	-28
2133.1	-15
2133.91	-6.5
2134.73	-14
2135.54	-15
2136.35	-20
2137.17	-19
2137.98	-24
2138.79	-14.5
2139.61	-16
2140.42	-23.5
2141.23	-16
2142.05	-21
2142.86	-13
2143.67	-25.5
2144.48	-35.5
2145.3	-14
2146.11	-23
2146.92	-30
2147.73	-15
2148.54	-25
2149.35	-37
2150.16	-19.5
2150.97	-13
2151.79	-23.5
2152.6	-21
2153.41	-21
2154.22	-6.5
2155.02	-21
2155.83	-29
2156.64	-16
2157.45	-9
2158.26	-20.5
2159.07	-25
2159.88	-4.5
2160.69	-9.5
2161.5	-16
2162.3	-28.5
2163.11	-7.5
2163.92	-18.5
2164.73	-18
2165.53	-25.5
2166.34	-15.5
2167.15	-54
2167.95	-39
2168.76	-21
2169.57	-17
2170.37	-25.5
2171.18	-31
2171.98	-13
2172.79	-22
2173.59	-27
2174.4	-30
2175.2	-14
2176.01	-18.5
2176.81	-23
2177.62	-20
2178.42	-13.5
2179.22	-20
2180.03	-24.5
2180.83	-20.5
2181.63	-33.5
2182.44	-37
2183.24	-20
2184.04	-15
2184.85	-17
2185.65	-31
2186.45	-22.5
2187.25	-23.5
2188.05	-23.5
2188.86	-15
2189.66	-17
2190.46	-29
2191.26	-47
2192.06	-30
2192.86	-15
2193.66	-45
2194.46	-23
2195.26	-27
2196.06	-16
2196.86	-34
2197.66	-33
2198.46	-27
2199.26	-29
2200.06	-36
2200.85	-33
2201.65	-28.5
2202.45	-23.5
2203.25	-35.5
2204.05	-28
2204.84	-24
2205.64	-25.5
2206.44	-28.5
2207.24	-26.5
2208.03	-29.5
2208.83	-53
2209.63	-26
2210.42	-33
2211.22	-31
2212.01	-34
2212.81	-22
2213.61	-29
2214.4	-36
2215.2	-28.5
2215.99	-13
2216.79	-26.5
2217.58	-35.5
2218.37	-17
2219.17	-36.5
2219.96	-40
2220.76	-39.5
2221.55	-23.5
2222.34	-34.5
2223.14	-29.5
2223.93	-36.5
2224.72	-23.5
2225.51	-29
2226.31	-17.5
2227.1	-22
2227.89	-36.5
2228.68	-32.5
2229.47	-27
2230.27	-30.5
2231.06	-37.5
2231.85	-33
2232.64	-21.5
2233.43	-33
2234.22	-41
2235.01	-35
2235.8	-24.5
2236.59	-28
2237.38	-25.5
2238.17	-33.5
2238.96	-22.5
2239.75	-43
2240.54	-22
2241.33	-35.5
2242.11	-27.5
2242.9	-35
2243.69	-48
2244.48	-22
2245.27	-41
2246.05	-41.5
2246.84	-44
2247.63	-29
2248.41	-39
2249.2	-33
2249.99	-40
2250.77	-30
2251.56	-41
2252.35	-38
2253.13	-25.5
2253.92	-36.5
2254.7	-39
2255.49	-49
2256.27	-18.5
2257.06	-37
2257.84	-22.5
2258.63	-22
2259.41	-25
2260.2	-30.5
2260.98	-49
2261.76	-26
2262.55	-39
2263.33	-28
2264.11	-29
2264.9	-25.5
2265.68	-27
2266.46	-41
2267.24	-29
2268.03	-28.5
2268.81	-40
2269.59	-40
2270.37	-37
2271.15	-34.5
2271.93	-36
2272.71	-30
2273.5	-29
2274.28	-33
2275.06	-38.5
2275.84	-27.5
2276.62	-29.5
2277.4	-39.5
2278.18	-35
2278.96	-32
2279.73	-22.5
2280.51	-36
2281.29	-32.5
2282.07	-26
2282.85	-42
2283.63	-36
2284.41	-26
2285.18	-42
2285.96	-60
2286.74	-43.5
2287.52	-23
2288.29	-49
2289.07	-28.5
2289.85	-42
2290.62	-43
2291.4	-35.5
2292.18	-32.5
2292.95	-34.5
2293.73	-32
2294.5	-37
2295.28	-34
2296.05	-24
2296.83	-31
2297.6	-55
2298.38	-31.5
2299.15	-32
2299.93	-27.5
2300.7	-46
2301.48	-31
2302.25	-27.5
2303.02	-46
2303.8	-28
2304.57	-20
2305.34	-32.5
2306.11	-33.5
2306.89	-25.5
2307.66	-30.5
2308.43	-40
2309.2	-33.5
2309.97	-25.5
2310.75	-34
2311.52	-40
2312.29	-35
2313.06	-30
2313.83	-35
2314.6	-21.5
2315.37	-36
2316.14	-42
2316.91	-44
2317.68	-38
2318.45	-21
2319.22	-34
2319.99	-36
2320.76	-48
2321.53	-21.5
2322.3	-41
2323.06	-43.5
2323.83	-36.5
2324.6	-22
2325.37	-52
2326.14	-27.5
2326.9	-29.5
2327.67	-29
2328.44	-45
2329.21	-33.5
2329.97	-19
2330.74	-43.5
2331.5	-24.5
2332.27	-21
2333.04	-38
2333.8	-37
2334.57	-20
2335.33	-16.5
2336.1	-35
2336.86	-48
2337.63	-39
2338.39	-24
2339.16	-40
2339.92	-52.5
2340.69	-38
2341.45	-29.5
2342.21	-48
2342.98	-32.5
2343.74	-28.5
2344.5	-32.5
2345.27	-50
2346.03	-34
2346.79	-29
2347.55	-46
2348.31	-36
2349.08	-35
2349.84	-39.5
2350.6	-49
2351.36	-36
2352.12	-30.5
2352.88	-43
2353.64	-32
2354.41	-35
2355.17	-33.5
2355.93	-39
2356.69	-29.5
2357.45	-30
2358.21	-40.5
2358.96	-57
2359.72	-27
2360.48	-31
2361.24	-41
2362	-41
2362.76	-31
2363.52	-25
2364.28	-53
2365.03	-25.5
2365.79	-29.5
2366.55	-36
2367.31	-36
2368.06	-27
2368.82	-26
2369.58	-26
2370.33	-42
2371.09	-17
2371.85	-44
2372.6	-42
2373.36	-36
2374.11	-27.5
2374.87	-79
2375.62	-54
2376.38	-25.5
2377.13	-30
2377.89	-40
2378.64	-29
2379.4	-19
2380.15	-32
2380.9	-35
2381.66	-36.5
2382.41	-36
2383.16	-36
2383.92	-42
2384.67	-38.5
2385.42	-27.5
2386.18	-32
2386.93	-37
2387.68	-27.5
2388.43	-34
2389.18	-28
2389.94	-37
2390.69	-28
2391.44	-35
2392.19	-35
2392.94	-27
2393.69	-30.5
2394.44	-33.5
2395.19	-45
2395.94	-27.5
2396.69	-44
2397.44	-32
2398.19	-23
2398.94	-33
2399.69	-25.5
2400.44	-38.5
2401.19	-35
2401.93	-39
2402.68	-49
2403.43	-32.5
2404.18	-43
2404.93	-41.5
2405.67	-26
2406.42	-32
2407.17	-23.5
2407.92	-28.5
2408.66	-26.5
2409.41	-36
2410.16	-31
2410.9	-40
2411.65	-33
2412.39	-37
2413.14	-42
2413.89	-31
2414.63	-16
2415.38	-32
2416.12	-37.5
2416.86	-36
2417.61	-24.5
2418.35	-31.5
2419.1	-32.5
2419.84	-34.5
2420.59	-28
2421.33	-28.5
2422.07	-52
2422.82	-34.5
2423.56	-35
2424.3	-38.5
2425.04	-39.5
2425.79	-30.5
2426.53	-33.5
2427.27	-40
2428.01	-41.5
2428.75	-30
2429.5	-42
2430.24	-36
2430.98	-29
2431.72	-50
2432.46	-29
2433.2	-71
2433.94	-34
2434.68	-35
2435.42	-37
2436.16	-33
2436.9	-31
2437.64	-34
2438.38	-48
2439.12	-37.5
2439.86	-26
2440.59	-39
2441.33	-36
2442.07	-27.5
2442.81	-30
2443.55	-40
2444.28	-36
2445.02	-48
2445.76	-48
2446.5	-32
2447.23	-42.5
2447.97	-33.5
2448.71	-35.5
2449.44	-48
2450.18	-24
2450.91	-29
2451.65	-36
2452.39	-26
2453.12	-40
2453.86	-39
2454.59	-35.5
2455.33	-27.5
2456.06	-36
2456.79	-46
2457.53	-35
2458.26	-39
2459	-32.5
2459.73	-45
2460.46	-32.5
2461.2	-17.5
2461.93	-48
2462.66	-47
2463.4	-39.5
2464.13	-19.5
2464.86	-45
2465.59	-29
2466.32	-30.5
2467.06	-44
2467.79	-45
2468.52	-34
2469.25	-36
2469.98	-36
2470.71	-46
2471.44	-24.5
2472.17	-51
2472.9	-36
2473.63	-33.5
2474.36	-31
2475.09	-21
2475.82	-31
2476.55	-33.5
2477.28	-39
2478.01	-49
2478.74	-39
2479.47	-36
2480.19	-38.5
2480.92	-39
2481.65	-37
2482.38	-34
2483.11	-34
2483.83	-31
2484.56	-33.5
2485.29	-28.5
2486.01	-37
2486.74	-28.5
2487.47	-30
2488.19	-42
2488.92	-47
2489.65	-24
2490.37	-45
2491.1	-44
2491.82	-30
2492.55	-35.5
2493.27	-36.25
2494	-40
2494.72	-32.5
2495.45	-32.5
2496.17	-37
2496.89	-36.5
2497.62	-34
2498.34	-25.5
2499.06	-33.5
2499.79	-28
2500.51	-27
2501.23	-32.5
2501.96	-45
2502.68	-25
2503.4	-23
2504.12	-40
2504.84	-29
2505.57	-35
2506.29	-41
2507.01	-27
2507.73	-35
2508.45	-37
2509.17	-39
2509.89	-44
2510.61	-37
2511.33	-27.5
2512.05	-44
2512.77	-34
2513.49	-26.5
2514.21	-33
2514.93	-35
2515.65	-37
2516.37	-35
2517.09	-43.5
2517.81	-21
2518.52	-61
2519.24	-42
2519.96	-36
2520.68	-43.5
2521.4	-31
2522.11	-35.5
2522.83	-39
2523.55	-25
2524.26	-35.5
2524.98	-25.5
2525.7	-37
2526.41	-30
2527.13	-50
2527.84	-28
2528.56	-30.5
2529.28	-24.5
2529.99	-42.5
2530.71	-26
2531.42	-25.5
2532.14	-37.5
2532.85	-33
2533.56	-36
2534.28	-30
2534.99	-28
2535.71	-40
2536.42	-42
2537.13	-21.5
2537.85	-40
2538.56	-28
2539.27	-32
2539.98	-31
2540.7	-30
2541.41	-30
2542.12	-31
2542.83	-39
2543.54	-41
2544.26	-38.5
2544.97	-27
2545.68	-32.5
2546.39	-56
2547.1	-33
2547.81	-32.5
2548.52	-44
2549.23	-29.5
2549.94	-34
2550.65	-46
2551.36	-43
2552.07	-25.5
2552.78	-29.5
2553.49	-45
2554.2	-35
2554.91	-27
2555.61	-42
2556.32	-35
2557.03	-36.5
2557.74	-24
2558.45	-44
2559.15	-36
2559.86	-43.5
2560.57	-27.5
2561.27	-35.5
2561.98	-38
2562.69	-29.5
2563.39	-35.5
2564.1	-49
2564.81	-37
2565.51	-24
2566.22	-40
2566.92	-42
2567.63	-33
2568.33	-30.5
2569.04	-45
2569.74	-35
2570.45	-30
2571.15	-32
2571.86	-53
2572.56	-35.5
2573.26	-33
2573.97	-54
2574.67	-26
2575.37	-42.5
2576.08	-28.5
2576.78	-38
2577.48	-35.5
2578.19	-19
2578.89	-38
2579.59	-26
2580.29	-28.5
2580.99	-37.5
2581.69	-43
2582.4	-30.5
2583.1	-42
2583.8	-28
2584.5	-38
2585.2	-36
2585.9	-23.5
2586.6	-38.5
2587.3	-54
2588	-18.5
2588.7	-36
2589.4	-35
2590.1	-34
2590.8	-47
2591.5	-27
2592.19	-31
2592.89	-33
2593.59	-32.5
2594.29	-39
2594.99	-52
2595.68	-35.5
2596.38	-29
2597.08	-40
2597.78	-35
2598.47	-37
2599.17	-41
2599.87	-36.5
2600.56	-38
2601.26	-50
2601.96	-31
2602.65	-47
2603.35	-35.5
2604.04	-27
2604.74	-45
2605.43	-35
2606.13	-46
2606.82	-39
2607.52	-31.5
2608.21	-32.5
2608.91	-15.5
2609.6	-43
2610.29	-36
2610.99	-27
2611.68	-38.5
2612.37	-38.5
2613.07	-39
2613.76	-41.5
2614.45	-39
2615.15	-24.5
2615.84	-17.5
2616.53	-36
2617.22	-34.5
2617.91	-40.5
2618.6	-27.5
2619.3	-33
2619.99	-35
2620.68	-21
2621.37	-28
2622.06	-35
2622.75	-51
2623.44	-27.5
2624.13	-31
2624.82	-37
2625.51	-44
2626.2	-36
2626.89	-42
2627.58	-35
2628.27	-47
2628.96	-32
2629.64	-26
2630.33	-34
2631.02	-22
2631.71	-29.5
2632.4	-33.5
2633.08	-44
2633.77	-26.5
2634.46	-51
2635.15	-38
2635.83	-30
2636.52	-40
2637.21	-41
2637.89	-38
2638.58	-28
2639.26	-29
2639.95	-44
2640.64	-31
2641.32	-33.5
2642.01	-34
2642.69	-38
2643.38	-36
2644.06	-29
2644.75	-38
2645.43	-37
2646.11	-19
2646.8	-31.5
2647.48	-37.5
2648.16	-37
2648.85	-28
2649.53	-37
2650.21	-39
2650.9	-35
2651.58	-40.5
2652.26	-34
2652.94	-23.5
2653.63	-38.5
2654.31	-40
2654.99	-43
2655.67	-34.5
2656.35	-28
2657.03	-45.5
2657.71	-40
2658.39	-27.5
2659.08	-36
2659.76	-45
2660.44	-47
2661.12	-27
2661.8	-32.5
2662.48	-39.5
2663.15	-43
2663.83	-28
2664.51	-33
2665.19	-27
2665.87	-34
2666.55	-30
2667.23	-27.5
2667.91	-38
2668.58	-25
2669.26	-28
2669.94	-30
2670.62	-38
2671.29	-42.5
2671.97	-50
2672.65	-27.5
2673.32	-38.5
2674	-21
2674.68	-36
2675.35	-34
2676.03	-36
2676.7	-27.5
2677.38	-37
2678.06	-44
2678.73	-31
2679.41	-27
2680.08	-41
2680.75	-29.5
2681.43	-37
2682.1	-19.5
2682.78	-33
2683.45	-24
2684.12	-35.5
2684.8	-29.5
2685.47	-37
2686.14	-29
2686.82	-47
2687.49	-47
2688.16	-27
2688.83	-22.5
2689.51	-45
2690.18	-20.5
2690.85	-27.5
2691.52	-39
2692.19	-34
2692.86	-31
2693.54	-32.5202
2694.21	-37.8273
2694.88	-22.2231
2695.55	-31.7345
2696.22	-37.3228
2696.89	-41.2518
2697.56	-37.1518
2698.23	-24.8255
2698.9	-29.1701
2699.57	-42.1581
2700.24	-31.875
2700.91	-30.8439
2701.57	-38.9163
2702.24	-22.8288
2702.91	-31.5222
2703.58	-29.722
2704.25	-42.3786
2704.92	-22.047
2705.58	-27.718
2706.25	-33.5126
2706.92	-23.1623
2707.58	-31.7156
2708.25	-30.7328
2708.92	-43.0673
2709.59	-34.5289
2710.25	-20.8357
2710.92	-38.8327
2711.58	-33.6054
2712.25	-28.2335
2712.92	-22.2103
2713.58	-31.6445
2714.25	-37.2877
2714.91	-27.5029
2715.58	-18.8097
2716.24	-30.9449
2716.91	-39.014
2717.57	-30.6634
2718.23	-30.4009
2718.9	-37.7416
2719.56	-26.162
2720.23	-27.4068
2720.89	-31.0531
2721.55	-38.8267
2722.22	-29.8967
2722.88	-24.4788
2723.54	-39.2778
2724.2	-25.4046
2724.87	-25.9737
2725.53	-31.4782
2726.19	-24.7313
2726.85	-19.4962
2727.51	-26.1164
2728.18	-25.3577
2728.84	-30.2265
2729.5	-26.3348
2730.16	-28.936
2730.82	-28.7896
2731.48	-30.4119
2732.14	-23.5422
2732.8	-30.3033
2733.46	-22.3272
2734.12	-27.0182
2734.78	-22.4025
2735.44	-21.9667
2736.1	-26.2576
2736.76	-30.6319
2737.42	-38.619
2738.07	-22.1974
2738.73	-22.8457
2739.39	-26.141
2740.05	-23.1044
2740.71	-24.1558
2741.37	-27.5614
2742.02	-25.3262
2742.68	-21.9067
2743.34	-19.0043
2743.99	-22.2854
2744.65	-25.2154
2745.31	-20.865
2745.96	-19.4551
2746.62	-21.7523
2747.28	-21.4881
2747.93	-17.791
2748.59	-16.8765
2749.24	-32.2942
2749.9	-20.6053
2750.55	-17.1736
2751.21	-18.7785
2751.86	-25.4205
2752.52	-25.8694
2753.17	-14.758
2753.83	-22.8784
2754.48	-17.7846
2755.14	-14.0001
2755.79	-10.0134
2756.44	-16.7288
2757.1	-20.6841
2757.75	-16.4692
2758.4	-12.317
2759.05	-16.1966
2759.71	-26.1372
2760.36	-22.5194
2761.01	-18.3677
2761.66	-14.2134
2762.32	-25.3897
2762.97	-16.4812
2763.63	2
2764.32	-33
2765.01	-15
2765.69	-8.5
2766.38	-5
2767.07	-24
2767.75	-12
2768.44	-16
2769.12	-27
2769.81	-18
2770.49	3
2771.18	-16.5
2771.87	-23
2772.55	-26
2773.24	-16.5
2773.92	-3
2774.6	-14
2775.29	-18
2775.97	-18.5
2776.66	-20
2777.34	-20
2778.03	-16.5
2778.71	-19
2779.39	-38
2780.08	-17.5
2780.76	-18
2781.44	-5
2782.12	-23.5
2782.81	-3.5
2783.49	-21
2784.17	-13.5
2784.85	-19
2785.54	-18
2786.22	-26
2786.9	-27.5
2787.58	-18
2788.26	-6
2788.94	-21
2789.63	-27
2790.31	-2
2790.99	-18.5
2791.67	-20.5
2792.35	-14.5
2793.03	-24.5
2793.71	-12
2794.39	-31
2795.07	-23
2795.75	-14
2796.43	-7
2797.11	-36
2797.79	-12
2798.46	-12.5
2799.14	-16.5
2799.82	-23.5
2800.5	-15
2801.18	-5
2801.86	-29
2802.54	-34.5
2803.21	-21
2803.89	-19
2804.57	-26.5
2805.25	-18
2805.92	-13
2806.6	-35
2807.28	-26
2807.95	-12
2808.63	-26
2809.31	-25
2809.98	-22
2810.66	-18.5
2811.34	-16
2812.01	-27
2812.69	-20.5
2813.36	-14
2814.04	-11
2814.71	-24
2815.39	-4
2816.06	-19.5
2816.74	-25
2817.41	-20
2818.09	-10
2818.76	-24.5
2819.44	-6
2820.11	-26
2820.78	-19.5
2821.46	-32
2822.13	-17.5
2822.8	-13.5
2823.48	-15.5
2824.15	-26
2824.82	-37
2825.49	-7
2826.17	-20
2826.84	-25
2827.51	-18
2828.18	-31
2828.86	-22
2829.53	-7
2830.2	-21
2830.87	-15.5
2831.54	-26
2832.21	-28.5
2832.88	-6
2833.55	-19
2834.22	-14
2834.9	-17
2835.56	-21
2836.23	-16
2836.91	-15.5
2837.57	-15
2838.24	-14.5
2838.91	-32.5
2839.58	-19.5
2840.25	-17
2840.92	-2
2841.59	-21.5
2842.26	-31.5
2842.93	-26
2843.6	-15
2844.26	-13.5
2844.93	-17
2845.6	-16.5
2846.27	-23.5
2846.93	-10
2847.6	-18
2848.27	-11.5
2848.94	-18.5
2849.6	-9.5
2850.27	-9
2850.94	-9.5
2851.6	-5
2852.27	4.5
2852.94	-4.5
2853.6	-17.5
2854.27	-10.5
2854.93	-20
2855.6	-9
2856.26	-14.5
2856.93	-12
2857.59	-3.5
2858.26	-7.5
2858.92	0
2859.59	-5.5
2860.25	-6.5
2860.92	-16
2861.58	-13
2862.24	-10
2862.91	-12
2863.57	-20
2864.23	-20.5
2864.9	-14.5
2865.56	-26
2866.22	-15.5
2866.89	-20
2867.55	-16
2868.21	-21.5
2868.87	-23
2869.54	-16
2870.2	-21.5
2870.86	-29.5
2871.52	-23
2872.18	-10
2872.84	-20
2873.51	-14.5
2874.17	-21
2874.83	-26
2875.49	-25.5
2876.15	-27
2876.81	-15
2877.47	-29
2878.13	-12
2878.79	-8
2879.45	-17
2880.11	-32
2880.77	-28
2881.43	-9
2882.09	-31
2882.75	-27
2883.4	-32
2884.06	-18.5
2884.72	-23
2885.38	-19.5
2886.04	-9
2886.7	-17
2887.35	-14.5
2888.01	-0.5
2888.67	-20
2889.33	-25
2889.98	-26
2890.64	-16.5
2891.3	-16
2891.95	-38
2892.61	-20
2893.27	-15
2893.92	-29
2894.58	-26
2895.23	-17
2895.89	-22
2896.55	-20.5
2897.2	-32
2897.86	-26
2898.51	-22
2899.17	-28.5
2899.82	-17.5
2900.48	-30
2901.13	-19
2901.79	-18
2902.44	-20
2903.09	-16
2903.75	-30.5
2904.4	-29.5
2905.05	-11
2905.71	-32
2906.36	-20
2907.01	-15.5
2907.67	-17
2908.32	-30
2908.97	-16.5
2909.63	-19.5
2910.28	-26
2910.93	-29
2911.58	-34
2912.23	-21.5
2912.88	-21
2913.54	-33
2914.19	-19.5
2914.84	-16
2915.49	-27
2916.14	-33
2916.79	-13
2917.44	-34
2918.09	-44
2918.74	-20
2919.39	-26.5
2920.04	-43
2920.69	-18
2921.34	-22
2921.99	-16.5
2922.64	-22.5
2923.29	-17.5
2923.94	-18
2924.59	-29
2925.23	-28.5
2925.88	-14
2926.53	-24.5
2927.18	-35.5
2927.83	-23
2928.48	-19
2929.12	-14
2929.77	-21
2930.42	-6.5
2931.07	-17
2931.71	-20
2932.36	-28
2933.01	-25
2933.65	-14
2934.3	-28.5
2934.95	-28
2935.59	-16.5
2936.24	-21
2936.88	-31
2937.53	-20
2938.17	-25
2938.82	-33
2939.46	-20
2940.11	-20
2940.75	-18.5
2941.4	-32
2942.04	-33
2942.69	-23.5
2943.33	-28
2943.98	-25.5
2944.62	-28.5
2945.26	-22.5
2945.91	-27
2946.55	-26
2947.19	-25
2947.84	-27
2948.48	-28.5
2949.12	-29
2949.76	-29.5
2950.41	-34
2951.05	-37.5
2951.69	-19.5
2952.33	-18.5
2952.98	-28
2953.62	-23
2954.26	-34
2954.9	-34
2955.54	-12.5
2956.18	-31.5
2956.82	-34.5
2957.46	-28
2958.1	-40.5
2958.74	-18
2959.38	-18.5
2960.02	-42
2960.66	-27.5
2961.3	-35.5
2961.94	-27.5
2962.58	-44
2963.22	-31.5
2963.86	-39
2964.5	-32
2965.14	-36
2965.78	-31
2966.42	-18
2967.05	-40.5
2967.69	-48
2968.33	-44
2968.97	-32.5
2969.61	-33.5
2970.24	-18.5
2970.88	-29
2971.52	-46
2972.15	-28
2972.79	-27
2973.43	-19.5
2974.06	-37.5
2974.7	-38.5
2975.34	-34
2975.97	-25
2976.61	-38
2977.24	-27
2977.88	-30
2978.52	-41
2979.15	-39
2979.79	-28
2980.42	-20.5
2981.06	-33
2981.69	-38.5
2982.32	-21
2982.96	-40
2983.59	-41.5
2984.23	-35.5
2984.86	-30.5
2985.49	-31
2986.13	-31.5
2986.76	-31
2987.39	-22
2988.03	-43
2988.66	-26
2989.29	-18
2989.93	-40
2990.56	-50
2991.19	-29
2991.82	-28
2992.45	-44
2993.09	-42
2993.72	-16
2994.35	-30
2994.98	-36
2995.61	-23
2996.24	-25
2996.87	-38
2997.5	-37
2998.14	-31
2998.77	-31.5
2999.4	-37
3000.03	-41
3000.66	-25
3001.29	-21
3001.91	-47
3002.54	-24.5
3003.17	-32
3003.8	-34
3004.43	-32
3005.06	-30.5
3005.69	-28
3006.32	-43
3006.95	-43
3007.57	-24
3008.2	-27
3008.83	-31
3009.46	-20.5
3010.08	-25
3010.71	-31
3011.34	-47.5
3011.97	-25.5
3012.59	-40
3013.22	-41
3013.85	-47
3014.47	-37
3015.1	-26
3015.72	-35
3016.35	-22.5
3016.98	-32
3017.6	-44
3018.23	-31
3018.85	-29.5
3019.48	-22
3020.1	-53
3020.73	-30
3021.35	-26.5
3021.98	-25
3022.6	-41
3023.23	-39
3023.85	-28
3024.47	-27
3025.1	-35
3025.72	-21.5
3026.34	-24
3026.97	-35
3027.59	-34.5
3028.21	-24.5
3028.84	-18.5
3029.46	-28
3030.08	-22
3030.7	-25.5
3031.32	-34
3031.95	-28.5
3032.57	-30
3033.19	-31
3033.81	-52
3034.43	-34.5
3035.05	-23.5
3035.68	-41.5
3036.3	-32.5
3036.92	-32
3037.54	-32
3038.16	-37
3038.78	-30
3039.4	-30
3040.02	-31.5
3040.64	-44
3041.26	-41
3041.88	-38
3042.5	-26
3043.12	-36
3043.73	-24.5
3044.35	-27.5
3044.97	-47
3045.59	-35.5
3046.21	-25
3046.83	-46.5
3047.44	-56
3048.06	-24
3048.68	-18
3049.3	-20
3049.92	-30
3050.53	-26
3051.15	-30
3051.77	-38.5
3052.38	-29.5
3053	-29
3053.62	-17
3054.23	-54
3054.85	-26
3055.46	-16
3056.08	-43
3056.7	-30.5
3057.31	-28
3057.93	-18
3058.54	-30.5
3059.16	-35.5
3059.77	-36
3060.39	-30
3061	-36
3061.61	-28.5
3062.23	-16.5
3062.84	-29
3063.46	-39
3064.07	-31.5
3064.68	-40
3065.3	-39
3065.91	-37.5
3066.52	-24
3067.14	-37
3067.75	-44
3068.36	-43.5
3068.98	-22.5
3069.59	-44
3070.2	-27.5
3070.81	-33
3071.42	-50.5
3072.04	-32.5
3072.65	-35
3073.26	-25
3073.87	-45
3074.48	-31.5
3075.09	-30.5
3075.7	-21
3076.31	-29
3076.92	-47
3077.53	-14
3078.14	-37
3078.75	-46
3079.36	-22
3079.97	-31
3080.58	-51
3081.19	-47
3081.8	-25
3082.41	-26
3083.02	-33
3083.63	-45
3084.24	-30
3084.84	-37
3085.45	-39.5
3086.06	-35
3086.67	-34
3087.28	-47
3087.88	-41
3088.49	-31
3089.1	-37
3089.71	-75
3090.31	-28
3090.92	-33
3091.53	-39
3092.13	-28.5
3092.74	-35.5
3093.34	-39
3093.95	-47
3094.56	-39
3095.16	-45
3095.77	-36
3096.37	-41.5
3096.98	-26
3097.58	-29
3098.19	-39
3098.79	-34.5
3099.4	-17.5
3100	-26
3100.61	-53
3101.21	-27
3101.81	-30.5
3102.42	-32
3103.02	-23.5
3103.63	-33.5
3104.23	-38
3104.83	-37
3105.43	-36.5
3106.04	-37
3106.64	-26
3107.24	-45
3107.85	-43
3108.45	-25.5
3109.05	-42
3109.65	-38.5
3110.25	-31
3110.86	-20
3111.46	-50.5
3112.06	-42.5
3112.66	-26.5
3113.26	-43
3113.86	-36
3114.46	-34
3115.06	-34
3115.66	-32
3116.26	-28
3116.86	-30
3117.46	-31
3118.06	-50
3118.66	-44
3119.26	-22.5
3119.86	-25.5
3120.46	-44.5
3121.06	-38
3121.66	-21
3122.26	-29
3122.85	-39
3123.45	-28.5
3124.05	-43
3124.65	-47
3125.25	-36.5
3125.84	-30.5
3126.44	-33
3127.04	-44
3127.64	-42
3128.23	-28.5
3128.83	-36
3129.43	-47
3130.02	-27
3130.62	-35.5
3131.22	-42
3131.81	-39
3132.41	-33
3133	-31
3133.6	-39.5
3134.19	-32.5
3134.79	-30
3135.39	-39.5
3135.98	-33.5
3136.58	-25
3137.17	-35.5
3137.76	-53
3138.36	-32
3138.95	-29
3139.55	-35
3140.14	-39
3140.73	-37.5
3141.33	-34
3141.92	-41.5
3142.51	-36
3143.11	-32.5
3143.7	-20
3144.29	-56
3144.89	-35
3145.48	-26.5
3146.07	-44
3146.66	-39.5
3147.26	-36
3147.85	-26.5
3148.44	-59
3149.03	-25
3149.62	-23
3150.21	-36
3150.8	-46.5
3151.39	-32
3151.99	-37
3152.58	-37.5
3153.17	-43
3153.76	-43.5
3154.35	-33
3154.94	-32.5
3155.53	-26
3156.12	-30
3156.71	-39
3157.29	-46
3157.88	-38
3158.47	-23
3159.06	-41
3159.65	-40.5
3160.24	-23.5
3160.83	-33
3161.42	-42
3162	-35
3162.59	-35
3163.18	-33.5
3163.77	-40
3164.35	-44
3164.94	-37
3165.53	-26
3166.12	-47
3166.7	-22.5
3167.29	-37
3167.88	-35.5
3168.46	-26.5
3169.05	-35
3169.64	-39
3170.22	-56.5
3170.81	-32
3171.39	-26.5
3171.98	-33
3172.56	-39
3173.15	-21
3173.73	-38
3174.32	-32.5
3174.9	-28.5
3175.49	-31
3176.07	-35.5
3176.65	-46.5
3177.24	-28.5
3177.82	-28.5
3178.41	-40.5
3178.99	-43
3179.57	-23.5
3180.16	-22.5
3180.74	-35
3181.32	-27.5
3181.91	-24.5
3182.49	-44
3183.07	-39
3183.65	-18
3184.23	-20
3184.82	-30.5
3185.4	-22
3185.98	-17
3186.56	-41
3187.14	-46
3187.72	-40
3188.3	-31
3188.89	-36
3189.47	-53
3190.05	-28.5
3190.63	-35
3191.21	-36
3191.79	-37.5
3192.37	-39
3192.95	-38
3193.53	-38
3194.11	-24.5
3194.69	-31
3195.26	-34.5
3195.84	-35
3196.42	-40.5
3197	-19
3197.58	-47
3198.16	-36.5
3198.74	-20.5
3199.31	-39.5
3199.89	-38.5
