100.582	560
101.867	538
103.152	504.5
104.437	515
105.721	521
107.004	483
108.287	481
109.571	462.5
110.853	459
112.136	444
113.418	448.5
114.7	440
115.981	435
117.262	430.5
118.543	406
119.823	423
121.103	415.5
122.383	385.5
123.663	387.5
124.942	391
126.221	391.5
127.499	384
128.777	370
130.056	397.5
131.333	397.5
132.61	363.5
133.887	391
135.163	372.5
136.439	368.5
137.715	350.5
138.992	344
140.267	343.5
141.541	322
142.816	332
144.09	336
145.364	325
146.637	308.5
147.911	308.5
149.184	291
150.457	276
151.729	300
153.001	314
154.273	286.5
155.544	277.5
156.815	258
158.086	270.5
159.356	275
160.626	251
161.896	259.5
163.165	257
164.434	242
165.703	242
166.971	254
168.24	259
169.507	231.5
170.774	215
172.042	242.5
173.309	232.5
174.575	214.5
175.841	228
177.107	218.5
178.373	170
179.637	204.5
180.902	218
182.167	214
183.431	201.5
184.695	177
185.958	230
187.222	203.5
188.485	195.5
189.747	197.5
191.009	178
192.272	180
193.534	192
194.795	188
196.055	197.5
197.316	181
198.577	154
199.837	186
201.096	192
202.356	173
203.615	194
204.873	189
206.132	181.5
207.39	167
208.648	197.5
209.905	182.5
211.162	175
212.419	195
213.675	187
214.932	168.5
216.187	186
217.443	204.5
218.697	165
219.953	147
221.207	181
222.462	185.5
223.715	166
224.969	152.5
226.222	173
227.475	169.5
228.727	149.5
229.98	155
231.232	172
232.483	158.5
233.734	134.5
234.986	142
236.236	173.5
237.486	143.5
238.737	158.5
239.986	161
241.235	163
242.484	147.5
243.733	154
244.981	196.5
246.229	185
247.477	186
248.725	183
249.971	210
251.219	202
252.465	164.5
253.711	174.5
254.957	145
256.203	137
257.448	137
258.693	181.5
259.937	167
261.181	141
262.425	138.5
263.669	152.5
264.912	141.5
266.155	144
267.398	147
268.64	120.5
269.881	134
271.123	150
272.364	135
273.605	117
274.846	107
276.086	117
277.326	124
278.566	111.5
279.806	116
281.045	139
282.283	115
283.522	123
284.76	121
285.998	133.5
287.235	107
288.473	103.5
289.71	113
290.946	117.5
292.182	110.5
293.418	114.5
294.654	118
295.888	110
297.123	105.5
298.358	102
299.592	128
300.826	108
302.06	58
303.293	109
304.526	109.5
305.759	100.5
306.991	86
308.223	113
309.455	85.5
310.687	95
311.917	88.5
313.148	109
314.379	87.5
315.609	66
316.839	84
318.068	92
319.297	78
320.526	95.5
321.754	81
322.982	96.5
324.21	90
325.438	95
326.665	105
327.892	85.5
329.118	75
330.345	89
331.571	84.5
332.797	72
334.022	90.5
335.247	86
336.471	76.5
337.696	78
338.92	75
340.144	88
341.367	56.5
342.591	68
343.813	84
345.036	92.5
346.257	80
347.48	62
348.701	90
349.922	82
351.143	84
352.363	89
353.583	93
354.803	85
356.023	63
357.243	74
358.462	90.5
359.68	57.5
360.899	77.5
362.117	89
363.334	69
364.551	82.5
365.769	69
366.986	85
368.202	63
369.418	52
370.633	67
371.849	75
373.065	76
374.279	59
375.494	78
376.708	63
377.921	61
379.136	76
380.349	77
381.562	67
382.774	62
383.987	79.5
385.198	73.5
386.41	41
387.621	75
388.832	54.5
390.043	55.5
391.253	46
392.463	66.5
393.674	71
394.883	58
396.092	38
397.301	65
398.509	58.5
399.717	70
400.925	63
402.133	67.5
403.34	60.5
404.547	41
405.753	65
406.96	66.5
408.165	44
409.371	45.5
410.576	55.5
411.781	63
412.986	52
414.191	57
415.394	53
416.598	54.5
417.802	50
419.005	56
420.208	62
421.41	62.5
422.613	20
423.815	65
425.016	45
426.217	48
427.418	49
428.619	52.5
429.818	28
431.019	37
432.218	65
433.418	58
434.617	45
435.815	34
437.014	49.5
438.212	39.5
439.41	37
440.607	50
441.805	49.5
443.001	42.5
444.198	37
445.394	50
446.59	69
447.785	38.5
448.98	51
450.175	60.5
451.37	42
452.564	33
453.758	55
454.952	45
456.145	35
457.339	45.5
458.531	50.5
459.724	52
460.916	36
462.107	48
463.299	53
464.49	31.5
465.681	43.5
466.871	49.5
468.062	41
469.252	50.5
470.441	39
471.631	38
472.819	45
474.008	28.5
475.196	22
476.385	24.5
477.572	26.5
478.76	44
479.946	50
481.133	50
482.32	11
483.506	43.5
484.692	40
485.877	27
487.063	16
488.247	38.5
489.432	44.5
490.616	39.5
491.8	39
492.984	46
494.167	37.5
495.35	27.5
496.533	49.5
497.715	35
498.897	38
500.079	25
501.26	31
502.441	28
503.622	25
504.803	32
505.983	49
507.163	36.5
508.342	21
509.522	34
510.701	39.5
511.88	36.5
513.058	21
514.236	18
515.413	23
516.591	11
517.768	34.5
518.945	40.5
520.121	19
521.297	19
522.473	42
523.648	30
524.823	45
525.998	32
527.173	35
528.348	13
529.522	15
530.694	28
531.868	42
533.041	32
534.214	18
535.386	43
536.558	31
537.731	30
538.902	25
540.073	16
541.244	15
542.414	16
543.585	8
544.754	24
545.924	16.5
547.094	13
548.262	22
549.431	32
550.6	24
551.767	26
552.935	10
554.103	29.5
555.27	24
556.436	24
557.603	23.5
558.769	17.5
559.935	20.5
561.1	30
562.266	26
563.431	17
564.595	25
565.759	12
566.924	12
568.087	22
569.25	11.5
570.414	20
571.576	19
572.739	10
573.901	23
575.062	23.5
576.224	36
577.385	20.5
578.546	33
579.707	20.5
580.867	13
582.028	29.5
583.187	25.5
584.347	15
585.505	22
586.664	38.5
587.822	29
588.98	14
590.138	24
591.296	25
592.453	26
593.61	21.5
594.767	21.5
595.922	40
597.079	33
598.234	12.5
599.39	41.5
600.544	34.5
601.699	15.5
602.854	29
604.008	25.5
605.161	15.5
606.315	2.5
607.468	27
608.621	19
609.774	18.5
610.926	12
612.078	30
613.229	20.5
614.381	15
615.532	27
616.682	15.5
617.833	14.5
618.983	0.5
620.133	27
621.282	22.5
622.431	13
623.58	13
624.729	18.5
625.877	14.5
627.025	10
628.172	19.5
629.32	3
630.467	5
631.614	15
632.76	30.5
633.906	-4
635.052	16
636.197	22
637.343	31
638.488	1.5
639.632	16
640.776	22
641.92	11.5
643.064	13
644.207	3
645.35	0
646.493	7
647.635	0
648.777	11
649.919	28.5
651.06	4.5
652.202	12
653.342	0
654.483	15.5
655.624	7
656.764	4
657.903	19
659.043	0.5
660.181	2.5
661.32	7
662.459	22.5
663.596	13.5
664.735	-3.5
665.872	21
667.009	7
668.146	-9
669.282	2
670.419	7
671.555	10.5
672.69	0
673.826	18.5
674.96	19
676.096	9
677.23	9
678.364	-4
679.498	8
680.631	-10
681.765	7
682.897	20
684.03	-2
685.163	15
686.294	22.5
687.426	10
688.557	11.5
689.689	6.5
690.819	25
691.949	11.5
693.079	6
694.21	3
695.339	33
696.468	4
697.597	-3
698.725	22
699.854	27
700.982	9
702.11	28
703.237	13
704.364	22
705.491	11
706.617	9
707.744	20
708.87	12.5
709.995	17.5
711.12	21
712.245	34
713.37	20.5
714.495	19
715.618	30
716.742	21.5
717.865	19
718.989	35
720.112	29
721.234	30
722.356	17
723.478	24
724.6	17
725.721	29.5
726.842	17
727.962	23.5
729.083	16
730.203	14.5
731.323	7
732.442	24.5
733.562	19.5
734.681	18
735.799	32
736.917	24.5
738.036	10
739.153	20
740.27	25
741.387	11.5
742.505	8
743.62	29
744.736	2
745.853	13.5
746.968	7
748.083	26
749.199	12
750.313	20
751.427	22
752.541	15
753.655	5.5
754.768	6.5
755.882	22.5
756.994	16
758.107	9
759.219	7
760.331	25.5
761.443	15
762.554	21
763.665	4
764.776	21.5
765.885	9.5
766.996	11
768.106	18
769.215	16
770.324	19
771.434	12.5
772.542	14.5
773.65	9
774.758	4
775.865	15
776.973	20
778.081	6
779.187	1
780.293	8.5
781.399	21
782.506	10.5
783.611	8.5
784.716	21
785.821	2.5
786.926	-1.5
788.03	17
789.134	8.5
790.238	-5.5
791.341	-1
792.444	25.5
793.547	10.5
794.65	16
795.752	12
796.854	10
797.956	23.5
799.057	19
800.158	17
801.259	8
802.359	10
803.459	-3
804.559	34.5
805.659	23
806.758	12
807.857	27
808.955	14
810.053	35
811.152	2
812.25	34
813.347	10.5
814.444	21
815.541	4
816.638	24
817.733	26
818.83	23
819.925	29.5
821.02	38.5
822.115	39.5
823.21	37
824.305	38
825.398	40
826.492	29
827.586	48.5
828.679	59.5
829.772	42
830.865	42
831.957	48
833.049	58
834.141	62.5
835.232	45
836.323	60
837.414	66.5
838.505	51.5
839.595	64
840.685	72
841.774	69.5
842.864	60
843.952	71.5
845.041	73
846.129	69.5
847.218	49
848.306	55
849.393	58.5
850.48	50.5
851.567	36
852.654	79
853.74	58.5
854.826	56.5
855.912	58
856.997	58.5
858.082	66.5
859.167	46
860.252	64
861.336	74.5
862.42	39
863.504	67
864.587	85
865.67	57
866.753	71
867.835	51
868.917	72
869.999	73.5
871.081	68.5
872.162	68
873.243	61.5
874.323	51
875.404	52
876.484	71
877.564	51.5
878.643	45
879.722	43
880.802	63.5
881.88	61
882.958	38
884.036	66.5
885.113	52
886.191	23
887.268	52.5
888.344	58
889.421	49
890.498	49
891.573	48
892.649	59
893.724	36.5
894.799	57.5
895.874	49
896.948	52.5
898.022	28
899.096	47
900.17	62
901.243	35.5
902.315	38
903.389	48
904.461	56
905.533	32
906.605	46
907.676	61
908.747	58
909.818	31
910.888	38
911.958	69
913.028	46.5
914.098	31
915.167	58.5
916.237	47
917.306	38
918.374	40.5
919.442	45.5
920.51	48.5
921.577	15
922.644	43
923.711	47.5
924.778	40.5
925.845	32
926.911	48
927.977	41.5
929.042	29.5
930.107	21
931.173	35
932.237	39.5
933.301	35
934.365	45.5
935.429	49
936.492	31
937.556	30
938.619	41
939.681	35.5
940.743	26
941.805	43
942.867	42.5
943.928	45.5
944.989	22.5
946.05	35
947.11	46.5
948.17	33
949.23	40
950.29	49
951.349	39
952.409	36.5
953.467	29.5
954.526	54.5
955.584	19
956.641	31.5
957.699	32
958.756	43.5
959.813	31
960.869	53
961.926	50
962.982	41
964.038	46.5
965.094	37
966.149	62
967.204	45.5
968.258	27
969.312	41
970.366	54
971.42	41
972.473	56
973.527	51
974.58	46
975.631	33.5
976.684	25
977.736	38.5
978.787	39.5
979.839	7
980.89	29.5
981.94	26
982.991	9
984.041	7.5
985.091	29
986.141	21
987.19	17
988.239	24
989.288	32
990.336	15
991.384	1
992.432	17.5
993.48	26.5
994.527	10
995.574	15
996.62	6
997.666	24.5
998.713	16.5
999.759	13
1000.8	40.5
1001.85	27.5
1002.89	19.5
1003.94	23.5
1004.98	20.5
1006.03	20
1007.07	20
1008.11	24.5
1009.16	18.5
1010.2	24.5
1011.24	20
1012.29	24
1013.33	29.5
1014.37	17.5
1015.41	31.5
1016.45	38
1017.49	11
1018.53	10
1019.57	16
1020.61	24.5
1021.65	23.5
1022.69	41
1023.73	40
1024.77	8.5
1025.81	-1
1026.85	13.5
1027.88	27
1028.92	23
1029.96	30
1031	32.5
1032.03	12.5
1033.07	19
1034.1	33.5
1035.14	31.5
1036.18	25
1037.21	13
1038.25	25.5
1039.28	32.5
1040.32	29
1041.35	21
1042.38	30
1043.42	20.5
1044.45	27
1045.48	36
1046.52	34.5
1047.55	17
1048.58	25
1049.61	25
1050.64	19.5
1051.67	31
1052.71	26.5
1053.74	21
1054.77	26
1055.8	27.5
1056.83	35
1057.85	39
1058.88	30
1059.91	23
1060.94	58
1061.97	42.5
1063	42.5
1064.03	61
1065.05	58
1066.08	49
1067.11	46.5
1068.13	56
1069.16	58
1070.19	42
1071.21	45
1072.24	37
1073.26	66.5
1074.29	32
1075.31	59
1076.34	62.5
1077.36	34
1078.38	59
1079.41	65.5
1080.43	72
1081.45	52
1082.47	51
1083.5	55.5
1084.52	63
1085.54	60
1086.56	57
1087.58	58.5
1088.6	50.5
1089.62	34
1090.64	46
1091.66	50
1092.68	39
1093.7	32
1094.72	30
1095.74	30
1096.76	8
1097.78	28.5
1098.79	34.5
1099.81	33
1100.83	28
1101.85	40.5
1102.86	23
1103.88	9
1104.9	27
1105.91	27.5
1106.93	12
1107.94	13
1108.96	27
1109.97	31.5
1110.99	11
1112	14
1113.01	29.5
1114.03	34.5
1115.04	16
1116.05	20.5
1117.07	11.5
1118.08	29.5
1119.09	8
1120.1	12
1121.11	14
1122.13	17.5
1123.14	7
1124.15	31
1125.16	9
1126.17	0
1127.18	11
1128.19	12.5
1129.2	4
1130.2	-8
1131.21	15
1132.22	-3.5
1133.23	-3
1134.24	5.5
1135.25	4
1136.25	15
1137.26	9
1138.27	5
1139.27	-2
1140.28	-4.5
1141.28	-20
1142.29	17.5
1143.29	5.5
1144.3	-12
1145.3	13
1146.31	8
1147.31	3.5
1148.32	-4
1149.32	-2.36429
1150.32	-4.1714
1151.33	-1.58858
1152.33	-10.6512
1153.33	8.78501
1154.33	-5.27693
1155.33	-9.50124
1156.34	-33.2138
1157.34	14.2912
1158.34	4.62764
1159.34	-3.62546
1160.34	-5.18942
1161.34	-3.73404
1162.34	-5.85181
1163.34	-1.45693
1164.34	7.20338
1165.34	-8.16587
1166.33	-12.6164
1167.33	2.35929
1168.33	8.66635
1169.33	-2.39274
1170.33	4.69931
1171.32	2.1863
1172.32	4.98597
1173.32	-5.69
1174.31	-1.41244
1175.31	7.25041
1176.31	2.98845
1177.3	5.50993
1178.3	7.97859
1179.29	-0.112602
1180.29	8.60095
1181.28	2.36932
1182.27	10.3938
1183.27	7.42653
1184.26	-3.16736
1185.25	-4.19393
1186.25	11.4963
1187.24	6.88002
1188.23	-3.5612
1189.22	1.05122
1190.22	-0.437413
1191.21	-0.340236
1192.2	-9.45485
1193.19	10.8997
1194.18	6.94185
1195.17	-0.412703
1196.16	5.99517
1197.15	11.3993
1198.14	5.03837
1199.13	3.2184
1200.12	2.32337
1201.11	8.82035
1202.09	6.74548
1203.08	3.20299
1204.07	12.1487
1205.06	6.47593
1206.04	-7.9926
1207.03	11.1346
1208.02	8.68739
1209	4.27369
1209.99	-3.73496
1210.98	11.0366
1211.96	5.70331
1212.95	12.3804
1213.93	13.0745
1214.92	6.95849
1215.9	8.54142
1216.89	11.9584
1217.87	0.782168
1218.85	11.6595
1219.84	9.79202
1220.82	12.5345
1221.8	17.1946
1222.78	12.9281
1223.77	11.0979
1224.75	10.2301
1225.73	15.9795
1226.71	13.1193
1227.69	19.1228
1228.67	9.38503
1229.65	12.7472
1230.63	15.0963
1231.61	16.8203
1232.59	26.3316
1233.57	15.9744
1234.55	21.5478
1235.53	24.2394
1236.51	25.3608
1237.49	31.3831
1238.46	34.5044
1239.44	31.679
1240.42	23.0608
1241.4	29.4807
1242.37	27.853
1243.35	31.602
1244.32	40.0929
1245.3	48.4734
1246.28	44.1887
1247.25	36.4487
1248.23	47.3831
1249.2	58.0178
1250.18	49.406
1251.15	49.6126
1252.12	64.2857
1252.72	71.5
1253.73	53
1254.74	71.5
1255.75	65.5
1256.75	70.5
1257.76	72.5
1258.77	60
1259.78	81.5
1260.79	78
1261.79	84
1262.8	84
1263.81	77
1264.81	83
1265.82	75.5
1266.82	68
1267.83	95
1268.83	79
1269.84	82
1270.84	85
1271.85	77.5
1272.85	61
1273.86	58
1274.86	73.5
1275.86	60
1276.87	64
1277.87	62
1278.87	53
1279.88	59.5
1280.88	54
1281.88	58
1282.88	42
1283.88	31
1284.88	35
1285.88	56
1286.89	41
1287.89	26
1288.89	51.5
1289.89	55
1290.89	61
1291.89	56
1292.88	68.5
1293.88	69
1294.88	77
1295.88	69.5
1296.88	80.5
1297.88	82
1298.88	85
1299.87	91.5
1300.87	76.5
1301.87	77
1302.86	71
1303.86	86.5
1304.86	76.5
1305.85	40
1306.85	50.5
1307.85	59
1308.84	52
1309.84	38
1310.83	44
1311.83	40
1312.82	49
1313.81	44
1314.81	43.5
1315.8	40.5
1316.8	34
1317.79	42
1318.78	43.5
1319.77	34
1320.77	27
1321.76	23.5
1322.75	38
1323.74	31.5
1324.73	20.5
1325.72	29
1326.72	22.5
1327.71	-2
1328.7	19
1329.69	29.5
1330.68	3
1331.67	9
1332.66	16.5
1333.65	7.5
1334.63	12
1335.62	12.5
1336.61	7
1337.6	12
1338.59	25
1339.58	4.5
1340.56	7
1341.55	14.5
1342.54	-2
1343.53	20
1344.51	14
1345.5	18
1346.48	13
1347.47	15
1348.45	5
1349.44	-3
1350.43	10.5
1351.41	9
1352.4	9.5
1353.38	-3
1354.36	13
1355.35	0
1356.33	-2
1357.31	7.5
1358.3	8.5
1359.28	13
1360.26	0
1361.25	5.5
1362.23	3.5
1363.21	-9
1364.19	5
1365.17	14
1366.15	3.5
1367.14	-9
1368.12	7
1369.1	12.5
1370.08	3
1371.06	-2
1372.04	4
1373.02	3
1373.99	-8
1374.97	-7
1375.95	8.5
1376.93	-9.5
1377.91	-8
1378.89	-2
1379.86	6
1380.84	3
1381.82	-13
1382.8	-12.5
1383.77	3
1384.75	-7
1385.73	-9
1386.7	-1.5
1387.68	-15
1388.65	-9
1389.63	-5
1390.6	3
1391.58	-8.5
1392.55	-22
1393.53	-14.5
1394.5	6.5
1395.48	-15
1396.45	-21
1397.42	9
1398.4	-0.5
1399.37	-6
1400.34	-9
1401.31	7.5
1402.29	1
1403.26	-12.5
1404.23	0
1405.2	3
1406.17	-23
1407.14	-4
1408.11	-4
1409.08	1.5
1410.05	-4.5
1411.02	6
1411.99	7
1412.96	-11
1413.93	-1
1414.9	10.5
1415.87	1
1416.84	-4
1417.81	10
1418.78	17.5
1419.74	3
1420.71	10
1421.68	13
1422.65	16.5
1423.61	16
1424.58	9
1425.55	15
1426.51	24
1427.48	39
1428.44	30
1429.41	40
1430.37	40
1431.34	62
1432.3	75.5
1433.27	92
1434.23	89
1435.2	84.5
1436.16	87
1437.12	105
1438.09	88
1439.05	95
1440.01	98
1440.97	98.5
1441.94	97
1442.9	88.5
1443.86	81
1444.82	75.5
1445.78	61
1446.74	71.5
1447.7	73.5
1448.67	60
1449.63	60.5
1450.59	69
1451.55	49
1452.5	53.5
1453.46	54
1454.42	51
1455.38	56.5
1456.34	43
1457.3	43
1458.26	49
1459.21	44.5
1460.17	40
1461.13	51
1462.09	29.5
1463.04	31
1464	20.5
1464.96	36.5
1465.91	17
1466.87	15.5
1467.82	10.5
1468.78	6
1469.73	7
1470.69	8
1471.64	-0.5
1472.6	-2
1473.55	-5
1474.51	3
1475.46	-7
1476.41	3
1477.37	-10
1478.32	-10
1479.27	-9
1480.23	-36
1481.18	0
1482.13	-8
1483.08	-19
1484.03	-12
1484.98	-4
1485.94	-6
1486.89	-15.5
1487.84	-18
1488.79	-24
1489.74	-15.5
1490.69	-41
1491.64	-16
1492.59	-20.5
1493.54	-15.5
1494.48	-17
1495.43	-16.5
1496.38	-7
1497.33	-23
1498.28	-20
1499.23	-11
1500.17	-16.5
1501.12	-19
1502.07	-9
1503.01	-19
1503.96	-22
1504.91	-17.5
1505.85	-10.5
1506.8	-17.5
1507.74	-22.5
1508.69	-33
1509.64	-17.5
1510.58	-32
1511.52	-20
1512.47	-18.5
1513.41	-5.5
1514.36	-30
1515.3	-17.5
1516.24	-18
1517.19	-12.5
1518.13	-21.5
1519.07	-17.5
1520.01	-24
1520.96	-11
1521.9	-14.5
1522.84	-4
1523.78	-22.5
1524.72	-23.5
1525.66	-28
1526.6	-13.5
1527.55	-35
1528.49	-26
1529.43	-24
1530.37	-34.5
1531.3	-23.5
1532.24	-16.5
1533.18	-16.5
1534.12	-11
1535.06	-35
1536	-20
1536.94	-10
1537.88	-30.5
1538.81	-28
1539.75	-18.5
1540.69	-23.5
1541.62	-29
1542.56	-21
1543.5	-27
1544.43	-18.5
1545.37	-36
1546.3	-17
1547.24	-22
1548.18	-18.5
1549.11	-20
1550.05	-23
1550.98	-19
1551.91	-20
1552.85	-21.5
1553.78	-14.5
1554.72	-17
1555.65	-42
1556.58	-21
1557.51	-16.5
1558.45	-29
1559.38	-26
1560.31	-19.5
1561.24	-28.5
1562.17	-16
1563.11	-21
1564.04	-31
1564.97	-24.5
1565.9	-37
1566.83	-23.5
1567.76	-15
1568.69	-22
1569.62	-22
1570.55	-21.5
1571.48	-36
1572.41	-34
1573.34	-30
1574.26	-33
1575.19	-22.5
1576.12	-31.5
1577.05	-17.5
1577.98	-11
1578.9	-22
1579.83	-33.5
1580.76	-25
1581.68	-26
1582.61	-23.5
1583.54	-20.5
1584.46	-13.5
1585.39	-26
1586.31	-25
1587.24	-11
1588.16	-32.5
1589.09	-9.5
1590.01	-26.5
1590.94	-22.5
1591.86	-21.5
1592.78	-27.5
1593.71	-28
1594.63	-13.5
1595.55	-24
1596.48	-37
1597.4	-16
1598.32	-14.5
1599.24	-14
1600.17	-34
1601.09	-20
1602.01	-23
1602.93	-33
1603.85	-27
1604.77	-25.5
1605.69	-24
1606.61	-26
1607.53	-15
1608.45	-13.5
1609.37	-31
1610.29	-32
1611.21	-18.5
1612.13	-24
1613.05	-28
1613.96	-22
1614.88	-23
1615.8	-20.5
1616.72	-38.5
1617.63	-30
1618.55	-9
1619.47	-25
1620.38	-31
1621.3	-19.5
1622.22	-26.5
1623.13	-34
1624.05	-12.5
1624.96	-13.5
1625.88	-20
1626.79	-28.5
1627.71	-21
1628.62	-19
1629.54	-18
1630.45	-19.5
1631.37	-12.5
1632.28	-25
1633.19	-18
1634.1	-13.5
1635.02	-7
1635.93	-19
1636.84	-14
1637.75	0
1638.67	-1.5
1639.58	-5
1640.49	-13.5
1641.4	-16
1642.31	0.5
1643.22	-8
1644.13	8
1645.04	9
1645.95	9.5
1646.86	8
1647.77	35
1648.68	20
1649.59	37.5
1650.5	42
1651.41	51.5
1652.31	50
1653.22	57.5
1654.13	76.5
1655.04	61
1655.95	82
1656.85	69
1657.76	77.5
1658.67	66
1659.57	61
1660.48	51
1661.38	44.5
1662.29	19.5
1663.2	11
1664.1	17
1665.01	17
1665.91	-11.5
1666.81	-4.5
1667.72	3
1668.62	-11
1669.53	-10.5
1670.43	-10
1671.33	-30
1672.24	-15.5
1673.14	-21
1674.04	-13.5
1674.94	-21
1675.85	-16.5
1676.75	-20.5
1677.65	-16.5
1678.55	-21
1679.45	-29
1680.35	-9
1681.25	-28.5
1682.15	-24
1683.05	-29
1683.95	-26
1684.85	-26
1685.75	-43
1686.65	-27
1687.55	-24
1688.45	-40
1689.35	-12.5
1690.25	-24
1691.15	-34
1692.04	-26
1692.94	-20
1693.84	-22
1694.74	-24.5
1695.63	-25.5
1696.53	-25
1697.43	-16
1698.32	-15
1699.22	-34.5
1700.11	-19.5
1701.01	-30
1701.9	-30
1702.8	-19
1703.69	-21.5
1704.59	-26
1705.48	-23
1706.38	-24
1707.27	-31
1708.16	-17
1709.06	-32
1709.95	-18
1710.84	-36
1711.74	-24
1712.63	-25.5
1713.52	-17.5
1714.41	-29
1715.3	-44
1716.2	-31.5
1717.09	-27
1717.98	-23.5
1718.87	-17
1719.76	-23.5
1720.65	-25
1721.54	-33.5
1722.43	-26
1723.32	-28
1724.21	-25
1725.1	-26.5
1725.99	-18.5
1726.88	-30
1727.76	-20.5
1728.65	-21
1729.54	-15
1730.43	-31
1731.31	-30
1732.2	-20.5
1733.09	-17
1733.98	-31.5
1734.86	-28
1735.75	-21
1736.63	-11
1737.52	-24
1738.41	-27
1739.29	-10.5
1740.18	-14.5
1741.06	-18
1741.95	-18.5
1742.83	-9.5
1743.72	-20.5
1744.6	-13
1745.48	-13
1746.37	-8
1747.25	-20
1748.13	-25
1749.02	-5
1749.9	-26
1750.78	-27
1751.66	-12
1752.54	-14.5
1753.43	-15.25
1754.31	-27.5
1755.19	-30
1756.07	-21
1756.95	-41
1757.83	-39
1758.71	-2.5
1759.59	-36
1760.47	-32
1761.35	-29
1762.23	-23
1763.11	-23.5
1763.99	-34
1764.87	-17.5
1765.74	-23
1766.62	-25.5
1767.5	-27
1768.38	-18.5
1769.25	-19
1770.13	-30
1771.01	-27
1771.89	-18.5
1772.76	-41
1773.64	-38
1774.51	-23.5
1775.39	-17.5
1776.27	-19.5
1777.14	-24
1778.02	-18.5
1778.89	-36
1779.76	-36.5
1780.64	-20
1781.51	-27
1782.39	-17.5
1783.26	-42
1784.13	-20
1785.01	-33
1785.88	-35
1786.75	-25
1787.63	-23.5
1788.5	-42.5
1789.37	-29.5
1790.24	-34
1791.11	-30.5
1791.98	-30.5
1792.86	-39.5
1793.73	-34
1794.6	-31
1795.47	-23
1796.34	-26.5
1797.21	-21
1798.08	-30
1798.95	-21
1799.82	-30
1800.68	-21.5
1801.55	-40
1802.42	-35
1803.29	-31
1804.16	-23
1805.03	-36
1805.89	-28
1806.76	-22
1807.63	-48
1808.49	-45
1809.36	-16
1810.23	-26
1811.09	-33
1811.96	-38
1812.83	-26.5
1813.69	-40
1814.56	-36
1815.42	-17.5
1816.29	-30.5
1817.15	-40
1818.02	-28
1818.88	-24.5
1819.74	-19
1820.61	-33.5
1821.47	-29.5
1822.33	-28
1823.2	-19
1824.06	-26
1824.92	-24
1825.78	-21
1826.65	-25
1827.51	-30
1828.37	-29
1829.23	-22
1830.09	-39
1830.95	-35
1831.81	-29
1832.67	-26
1833.53	-35
1834.39	-26
1835.25	-37
1836.11	-34
1836.97	-44
1837.83	-23.5
1838.69	-37
1839.55	-35.5
1840.41	-37
1841.26	-26
1842.12	-29
1842.98	-35
1843.84	-15
1844.69	-23
1845.55	-38
1846.41	-31
1847.26	-23
1848.12	-21
1848.98	-25.5
1849.83	-29
1850.69	-40
1851.54	-29
1852.4	-41
1853.25	-8
1854.11	-26
1854.96	-44
1855.82	-32.5
1856.67	-31.5
1857.52	-30
1858.38	-30.5
1859.23	-34.5
1860.08	-24.5
1860.93	-23.5
1861.79	-39.5
1862.64	-22.5
1863.49	-23
1864.34	-38
1865.19	-23
1866.05	-22.5
1866.9	-29.5
1867.75	-25.5
1868.6	-32
1869.45	-29
1870.3	-26.5
1871.15	-27.5
1872	-22
1872.85	-17
1873.7	-48
1874.55	-29
1875.4	-31.5
1876.24	-22
1877.09	-36
1877.94	-23.5
1878.79	-40.5
1879.64	-31
1880.48	-38
1881.33	-21.5
1882.18	-23.5
1883.02	-46
1883.87	-30
1884.72	-25
1885.56	-30
1886.41	-37.5
1887.25	-25.5
1888.1	-31
1888.94	-33
1889.79	-40.5
1890.63	-23
1891.48	-42
1892.32	-44
1893.17	-33.5
1894.01	-26
1894.85	-51.5
1895.7	-37
1896.54	-22.5
1897.38	-27
1898.23	-26
1899.07	-32
1899.91	-25
1900.75	-26
1901.59	-49
1902.44	-28
1903.28	-23
1904.12	-37
1904.96	-45
1905.8	-27
1906.64	-34.5
1907.48	-30.5
1908.32	-33
1909.16	-20.5
1910	-37
1910.84	-23.5
1911.68	-38
1912.51	-25
1913.35	-35
1914.19	-25
1915.03	-25
1915.87	-24
1916.7	-39
1917.54	-34
1918.38	-31
1919.21	-31.5
1920.05	-43
1920.89	-33
1921.72	-33
1922.56	-53
1923.4	-20
1924.23	-12.5
1925.07	-33.5
1925.9	-33
1926.74	-21.5
1927.57	-24
1928.41	-29
1929.24	-34
1930.07	-30.5
1930.91	-30
1931.74	-32
1932.57	-19.5
1933.41	-28
1934.24	-38.5
1935.07	-35
1935.9	-27.5
1936.74	-26
1937.57	-19
1938.4	-40
1939.23	-28.5
1940.06	-28
1940.89	-39
1941.72	-20
1942.55	-29
1943.38	-40
1944.21	-32.5
1945.04	-34
1945.87	-5.5
1946.7	-27
1947.53	-45.5
1948.36	-22.5
1949.19	-25.5
1950.02	-43
1950.84	-26.5
1951.67	-25
1952.5	-26.5
1953.33	-41
1954.15	-5.5
1954.98	-16.5
1955.81	-26.5
1956.64	-31
1957.46	-32.5
1958.29	-38.5
1959.11	-31.5
1959.94	-26.5
1960.76	-21.5
1961.59	-38.5
1962.41	-32
1963.24	-23
1964.06	-31.5
1964.89	-36.5
1965.71	-21.5
1966.53	-26.5
1967.36	-24.5
1968.18	-37.5
1969	-21
1969.83	-27.5
1970.65	-29.5
1971.47	-37
1972.3	-26.5
1973.12	-31
1973.94	-20.5
1974.76	-38
1975.58	-20
1976.4	-24.5
1977.22	-30
1978.04	-29
1978.86	-17.5
1979.68	-27.5
1980.5	-30
1981.32	-31.5
1982.14	-27
1982.96	-22.5
1983.78	-37
1984.6	-31
1985.42	-31.5
1986.24	-32
1987.06	-22
1987.87	-28
1988.69	-39.5
1989.51	-35.5
1990.32	-50
1991.14	-21.5
1991.96	-52.5
1992.78	-35
1993.59	-35
1994.41	-27.5
1995.22	-29
1996.04	-25
1996.85	-21
1997.67	-38.431
1998.48	-39.5631
1999.3	-18.75
2000.11	-15.6853
2000.93	-30.6217
2001.74	-45.5661
2002.56	-30.5164
2003.37	-16.0716
2004.18	-35.0637
2004.99	-19.2695
2005.81	-28.129
2006.62	-36.464
2007.43	-22.6439
2008.25	-23.1265
2009.06	-20.8512
2009.87	-30.0415
2010.68	-30.5966
2011.49	-22.8372
2012.3	-29.1878
2013.11	-29.2089
2013.92	-21.7145
2014.73	-24.0938
2015.54	-31.9435
2016.35	-22.3324
2017.16	-22.3712
2017.97	-22.508
2018.78	-34.2081
2019.59	-29.0981
2020.4	-19.6667
2021.21	-27.7766
2022.02	-47.1058
2022.83	-20.0092
2023.63	-25.0287
2024.44	-24.3682
2025.25	-24.9134
2026.06	-23.0054
2026.86	-28.5689
2027.67	-34.7988
2028.48	-28.9399
2029.28	-21.2692
2030.09	-22.2955
2030.89	-26.5973
2031.7	-23.2051
2032.5	-20.2243
2033.31	-37.2944
2034.11	-23.9885
2034.92	-23.0042
2035.72	-23.1561
2036.53	-29.7571
2037.33	-37.3947
2038.14	-21.3451
2038.94	-25.1333
2039.74	-14.3201
2040.55	-20.8871
2041.35	-21.239
2042.15	-29.6633
2042.95	-24.8752
2043.76	-27.5566
2044.56	-29.2791
2045.36	-26.0319
2046.16	-24.3788
2046.96	-21.0284
2047.76	-20.4336
2048.56	-27.356
2049.37	-23.2683
2050.17	-26.36
2050.97	-28.0125
2051.77	-27.4305
2052.57	-22.7018
2053.36	-28.0971
2054.16	-22.2206
2054.96	-22.0263
2055.76	-24.1933
2056.56	-24.895
2057.36	-29.9276
2058.16	-19.6624
2058.96	-26.3967
2059.75	-25.4229
2060.55	-8.64316
2061.35	-17.9774
2062.14	-29.4372
2062.94	-15.2409
2063.74	-21.5565
2064.53	-22.2286
2065.33	-25.8671
2066.13	-20.4069
2066.92	-10.8524
2067.72	-17.2706
2068.51	-18.2218
2069.31	-19.1435
2070.1	-20.315
2070.9	-19.139
2071.69	-24.7069
2072.49	-14.9506
2073.28	-17.2473
2074.07	-22.0791
2074.87	-21.9407
2075.66	-18.3378
2076.45	-20.0284
2077.25	-33.7381
2078.04	-17.1772
2078.83	-14.0566
2079.62	-16.6514
2080.41	-27.071
2081.21	-18.2729
2081.38	-15.5
2082.2	-24.5
2083.03	-21
2083.86	-20.5
2084.68	-18
2085.51	-16
2086.34	-25.5
2087.16	-11
2087.99	-17
2088.81	-32
2089.64	-15
2090.46	-20
2091.29	-27
2092.11	-29
2092.94	-8.5
2093.76	-18.5
2094.58	-21.5
2095.41	-13.5
2096.23	-15.5
2097.06	-23
2097.88	-18
2098.7	-9
2099.53	-13.5
2100.35	-17.5
2101.17	-15
2101.99	-13
2102.81	-10
2103.64	-23
2104.46	-18
2105.28	-17.5
2106.1	-10.5
2106.92	-20
2107.74	-18
2108.56	3
2109.38	-26
2110.2	-14
2111.03	-11
2111.84	-8
2112.66	-20
2113.48	-37
2114.3	-18
2115.12	-17
2115.94	-25
2116.76	-19.5
2117.58	-18.5
2118.4	-23.5
2119.22	-19
2120.03	-10.5
2120.85	-8
2121.67	-11
2122.49	-14
2123.3	-15.5
2124.12	-23.5
2124.94	-13
2125.76	-19.5
2126.57	-17
2127.39	-25
2128.2	-15
2129.02	-9
2129.83	-25
2130.65	-31
2131.47	-19
2132.28	-10.5
2133.1	-22
2133.91	-17
2134.73	-9
2135.54	-2.5
2136.35	-18.5
2137.17	-9.5
2137.98	-8.5
2138.79	-17.5
2139.61	-30
2140.42	-17
2141.23	-23.5
2142.05	-12.5
2142.86	-12
2143.67	-7.5
2144.48	-10
2145.3	-20
2146.11	-25.5
2146.92	-5
2147.73	-12
2148.54	-24.5
2149.35	-19.5
2150.16	-18.5
2150.97	-18
2151.79	-21
2152.6	-10.5
2153.41	-17
2154.22	-32
2155.02	-19
2155.83	-28
2156.64	-6.5
2157.45	-13
2158.26	-34
2159.07	-18
2159.88	-21
2160.69	-18
2161.5	-21.5
2162.3	-25
2163.11	-23
2163.92	-16.5
2164.73	-24
2165.53	-12
2166.34	-33
2167.15	-21.5
2167.95	-18.5
2168.76	-16.5
2169.57	-33.5
2170.37	-17
2171.18	-22
2171.98	-22.5
2172.79	-17
2173.59	-24
2174.4	-20
2175.2	-33
2176.01	-20
2176.81	-22
2177.62	-33
2178.42	-18.5
2179.22	-15
2180.03	-26.5
2180.83	-33
2181.63	-27.5
2182.44	-22
2183.24	-22
2184.04	-24
2184.85	-14
2185.65	-23.5
2186.45	-32
2187.25	-35.5
2188.05	-15.5
2188.86	-18.5
2189.66	-37
2190.46	-22
2191.26	-13
2192.06	-18
2192.86	-48
2193.66	-11
2194.46	-30.5
2195.26	-35
2196.06	-21.5
2196.86	-28
2197.66	-18.5
2198.46	-22.5
2199.26	-26
2200.06	-19
2200.85	-30.5
2201.65	-30.5
2202.45	-19.5
2203.25	-12.5
2204.05	-29.5
2204.84	-29
2205.64	-29
2206.44	-34
2207.24	-23.5
2208.03	-6.5
2208.83	-27.5
2209.63	-22
2210.42	-33
2211.22	-19
2212.01	-28
2212.81	-32.5
2213.61	-24.5
2214.4	-30.5
2215.2	-34
2215.99	-30.5
2216.79	-31
2217.58	-34
2218.37	-29.5
2219.17	-34
2219.96	-29.5
2220.76	-23
2221.55	-29
2222.34	-32
2223.14	-24.5
2223.93	-39
2224.72	-35
2225.51	-22.5
2226.31	-18.5
2227.1	-31.5
2227.89	-32.5
2228.68	-18.5
2229.47	-17.5
2230.27	-32
2231.06	-30.5
2231.85	-15.5
2232.64	-56
2233.43	-32
2234.22	-16.5
2235.01	-33.5
2235.8	-27
2236.59	-38.5
2237.38	-27
2238.17	-38
2238.96	-39
2239.75	-18.5
2240.54	-34.5
2241.33	-48
2242.11	-32
2242.9	-27
2243.69	-24.5
2244.48	-25.5
2245.27	-34.5
2246.05	-22
2246.84	-30
2247.63	-30
2248.41	-28
2249.2	-25.5
2249.99	-25
2250.77	-29
2251.56	-22
2252.35	-32.5
2253.13	-19
2253.92	-29
2254.7	-26.5
2255.49	-22
2256.27	-45.5
2257.06	-17.5
2257.84	-30
2258.63	-23
2259.41	-36.5
2260.2	-18
2260.98	-38
2261.76	-42
2262.55	-33
2263.33	-39.5
2264.11	-36.5
2264.9	-28.5
2265.68	-27
2266.46	-26.5
2267.24	-38
2268.03	-33
2268.81	-28.5
2269.59	-37
2270.37	-41
2271.15	-34.5
2271.93	-29.5
2272.71	-38
2273.5	-44
2274.28	-32.5
2275.06	-35
2275.84	-47
2276.62	-35.5
2277.4	-23.5
2278.18	-35.5
2278.96	-33.5
2279.73	-36
2280.51	-17.5
2281.29	-31
2282.07	-51
2282.85	-27.5
2283.63	-33
2284.41	-30.5
2285.18	-32.5
2285.96	-23
2286.74	-24
2287.52	-37
2288.29	-37.5
2289.07	-25
2289.85	-39.5
2290.62	-32.5
2291.4	-34
2292.18	-33
2292.95	-35.5
2293.73	-35
2294.5	-26.5
2295.28	-40
2296.05	-23
2296.83	-21.5
2297.6	-33
2298.38	-21
2299.15	-32.5
2299.93	-25
2300.7	-37
2301.48	-33.5
2302.25	-32.5
2303.02	-33
2303.8	-37
2304.57	-30.5
2305.34	-28
2306.11	-34
2306.89	-33.5
2307.66	-41
2308.43	-32
2309.2	-31
2309.97	-45
2310.75	-18
2311.52	-32
2312.29	-34.5
2313.06	-37
2313.83	-37.5
2314.6	-33.5
2315.37	-38.5
2316.14	-20.5
2316.91	-34
2317.68	-39
2318.45	-48.5
2319.22	-27
2319.99	-24.5
2320.76	-37
2321.53	-25.5
2322.3	-25.5
2323.06	-34
2323.83	-37
2324.6	-23
2325.37	-18
2326.14	-33
2326.9	-39
2327.67	-30.5
2328.44	-21
2329.21	-31
2329.97	-45
2330.74	-21.5
2331.5	-33
2332.27	-23
2333.04	-34
2333.8	-26.5
2334.57	-57
2335.33	-44
2336.1	-34
2336.86	-25.5
2337.63	-52
2338.39	-39.5
2339.16	-20
2339.92	-33
2340.69	-27
2341.45	-44
2342.21	-39
2342.98	-45.5
2343.74	-39
2344.5	-33.5
2345.27	-30
2346.03	-33
2346.79	-34.5
2347.55	-20.5
2348.31	-42
2349.08	-40.5
2349.84	-31
2350.6	-31
2351.36	-33.5
2352.12	-53
2352.88	-29.5
2353.64	-23
2354.41	-30
2355.17	-39
2355.93	-28.5
2356.69	-32
2357.45	-52
2358.21	-28
2358.96	-34
2359.72	-35.5
2360.48	-34
2361.24	-22
2362	-21.5
2362.76	-41
2363.52	-38
2364.28	-31.5
2365.03	-35
2365.79	-27
2366.55	-34
2367.31	-25.5
2368.06	-30
2368.82	-36
2369.58	-26.5
2370.33	-37
2371.09	-33
2371.85	-47
2372.6	-29
2373.36	-42
2374.11	-41.5
2374.87	-21.5
2375.62	-22.5
2376.38	-37
2377.13	-43
2377.89	-16.5
2378.64	-27
2379.4	-50
2380.15	-23
2380.9	-32
2381.66	-27.5
2382.41	-48
2383.16	-30
2383.92	-27
2384.67	-36
2385.42	-37
2386.18	-16.5
2386.93	-36
2387.68	-50
2388.43	-35.5
2389.18	-32
2389.94	-41
2390.69	-41
2391.44	-29
2392.19	-31.5
2392.94	-40
2393.69	-31
2394.44	-25
2395.19	-34
2395.94	-34
2396.69	-26
2397.44	-30
2398.19	-32
2398.94	-36
2399.69	-27
2400.44	-37
2401.19	-50
2401.93	-36
2402.68	-34.5
2403.43	-40
2404.18	-41
2404.93	-23
2405.67	-33
2406.42	-29
2407.17	-34.5
2407.92	-32
2408.66	-30.5
2409.41	-34
2410.16	-39.5
2410.9	-24
2411.65	-36.5
2412.39	-34
2413.14	-27.5
2413.89	-35
2414.63	-31
2415.38	-36
2416.12	-33
2416.86	-33
2417.61	-34
2418.35	-30
2419.1	-17.5
2419.84	-35
2420.59	-34
2421.33	-32.5
2422.07	-30
2422.82	-38.5
2423.56	-32.5
2424.3	-40
2425.04	-40
2425.79	-36
2426.53	-40
2427.27	-37
2428.01	-39
2428.75	-25.5
2429.5	-28
2430.24	-27
2430.98	-37
2431.72	-28.5
2432.46	-30
2433.2	-47
2433.94	-35.5
2434.68	-37
2435.42	-26
2436.16	-33
2436.9	-42
2437.64	-43
2438.38	-34
2439.12	-30
2439.86	-37.5
2440.59	-27.5
2441.33	-39
2442.07	-25
2442.81	-34
2443.55	-40
2444.28	-43.5
2445.02	-38.5
2445.76	-30
2446.5	-24.5
2447.23	-35
2447.97	-19
2448.71	-22.5
2449.44	-32.5
2450.18	-31.5
2450.91	-30
2451.65	-36
2452.39	-41
2453.12	-39
2453.86	-30.5
2454.59	-40.5
2455.33	-42.5
2456.06	-27
2456.79	-20.5
2457.53	-31
2458.26	-41
2459	-37
2459.73	-44
2460.46	-38
2461.2	-33.5
2461.93	-27.5
2462.66	-43.5
2463.4	-39.5
2464.13	-29.5
2464.86	-28
2465.59	-33
2466.32	-37.5
2467.06	-33
2467.79	-32
2468.52	-38
2469.25	-46.5
2469.98	-31
2470.71	-38
2471.44	-49.5
2472.17	-13.5
2472.9	-27.5
2473.63	-42.5
2474.36	-40
2475.09	-25
2475.82	-31.5
2476.55	-38
2477.28	-27
2478.01	-27
2478.74	-48
2479.47	-17
2480.19	-23
2480.92	-46
2481.65	-29
2482.38	-46
2483.11	-33
2483.83	-28.5
2484.56	-35
2485.29	-33.5
2486.01	-22
2486.74	-41
2487.47	-33
2488.19	-24
2488.92	-40
2489.65	-32
2490.37	-29.5
2491.1	-34.5
2491.82	-31
2492.55	-32
2493.27	-26.5
2494	-25
2494.72	-22
2495.45	-39
2496.17	-22.5
2496.89	-32.5
2497.62	-33
2498.34	-27
2499.06	-30.5
2499.79	-30
2500.51	-40
2501.23	-33.5
2501.96	-39
2502.68	-31.5
2503.4	-38.5
2504.12	-35.5
2504.84	-33.5
2505.57	-29
2506.29	-43
2507.01	-36
2507.73	-31
2508.45	-28
2509.17	-34.5
2509.89	-32.5
2510.61	-34.5
2511.33	-28
2512.05	-25
2512.77	-36
2513.49	-33
2514.21	-27.5
2514.93	-38
2515.65	-48.5
2516.37	-41
2517.09	-35
2517.81	-31
2518.52	-32
2519.24	-49
2519.96	-21
2520.68	-30
2521.4	-37
2522.11	-36.5
2522.83	-36.5
2523.55	-27
2524.26	-49.5
2524.98	-40.5
2525.7	-23.5
2526.41	-35.5
2527.13	-31.5
2527.84	-24.5
2528.56	-33
2529.28	-56
2529.99	-25
2530.71	-28
2531.42	-36.5
2532.14	-27.5
2532.85	-36
2533.56	-32.5
2534.28	-38
2534.99	-26.5
2535.71	-29
2536.42	-25
2537.13	-35.5
2537.85	-24.5
2538.56	-30
2539.27	-35.5
2539.98	-35
2540.7	-17
2541.41	-29.5
2542.12	-28
2542.83	-37.5
2543.54	-34
2544.26	-40
2544.97	-41
2545.68	-28
2546.39	-35
2547.1	-36.5
2547.81	-32
2548.52	-31
2549.23	-25.5
2549.94	-50
2550.65	-45
2551.36	-16.5
2552.07	-32
2552.78	-47
2553.49	-22.5
2554.2	-38
2554.91	-34
2555.61	-33
2556.32	-25.5
2557.03	-41
2557.74	-33.5
2558.45	-41
2559.15	-19
2559.86	-28.5
2560.57	-38
2561.27	-36.5
2561.98	-38
2562.69	-35
2563.39	-42
2564.1	-37.5
2564.81	-33
2565.51	-33.5
2566.22	-23
2566.92	-22
2567.63	-37
2568.33	-24.5
2569.04	-28
2569.74	-44.5
2570.45	-37.5
2571.15	-32
2571.86	-25.5
2572.56	-39
2573.26	-36
2573.97	-34
2574.67	-37.5
2575.37	-54
2576.08	-33
2576.78	-27
2577.48	-37.5
2578.19	-38
2578.89	-43.5
2579.59	-25
2580.29	-41
2580.99	-41
2581.69	-23.5
2582.4	-23.5
2583.1	-35.5
2583.8	-20.5
2584.5	-31
2585.2	-46
2585.9	-34
2586.6	-35
2587.3	-26.5
2588	-29.5
2588.7	-35.5
2589.4	-21.5
2590.1	-30.5
2590.8	-34.5
2591.5	-35
2592.19	-42
2592.89	-37
2593.59	-31
2594.29	-27.5
2594.99	-26.5
2595.68	-39
2596.38	-34.5
2597.08	-37
2597.78	-30
2598.47	-39
2599.17	-35
2599.87	-36.5
2600.56	-38.5
2601.26	-42
2601.96	-49.5
2602.65	-32
2603.35	-34.5
2604.04	-35
2604.74	-21
2605.43	-30
2606.13	-36
2606.82	-34
2607.52	-26.5
2608.21	-33
2608.91	-29
2609.6	-26
2610.29	-33
2610.99	-24
2611.68	-53.5
2612.37	-39.5
2613.07	-22
2613.76	-45
2614.45	-19
2615.15	-33.5
2615.84	-36
2616.53	-32
2617.22	-32.5
2617.91	-33
2618.6	-38
2619.3	-32.5
2619.99	-24.5
2620.68	-27
2621.37	-39.5
2622.06	-41
2622.75	-17.5
2623.44	-33.5
2624.13	-41
2624.82	-24
2625.51	-29
2626.2	-42.5
2626.89	-31.5
2627.58	-14.5
2628.27	-38
2628.96	-55
2629.64	-36
2630.33	-34.5
2631.02	-37.5
2631.71	-37.5
2632.4	-23
2633.08	-22
2633.77	-39
2634.46	-35.5
2635.15	-16.5
2635.83	-28.5
2636.52	-47
2637.21	-21
2637.89	-21
2638.58	-66
2639.26	-36.5
2639.95	-28.5
2640.64	-25
2641.32	-36.5
2642.01	-34
2642.69	-23
2643.38	-19
2644.06	-46
2644.75	-30
2645.43	-27.5
2646.11	-37.5
2646.8	-29.5
2647.48	-19.5
2648.16	-29.5
2648.85	-29
2649.53	-24.5
2650.21	-17
2650.9	-32
2651.58	-29
2652.26	-28.5
2652.94	-29
2653.63	-36
2654.31	-48
2654.99	-38.5
2655.67	-45.5
2656.35	-32.5
2657.03	-27
2657.71	-26.5
2658.39	-26.5
2659.08	-36
2659.76	-32
2660.44	-31.5
2661.12	-35
2661.8	-37
2662.48	-31.5
2663.15	-34
2663.83	-47
2664.51	-26.5
2665.19	-31
2665.87	-37
2666.55	-45
2667.23	-26
2667.91	-24
2668.58	-36
2669.26	-51.5
2669.94	-26.5
2670.62	-25
2671.29	-37
2671.97	-29
2672.65	-27
2673.32	-30
2674	-25
2674.68	-18
2675.35	-31
2676.03	-37.5
2676.7	-36
2677.38	-26
2678.06	-31
2678.73	-27.5
2679.41	-48
2680.08	-9
2680.75	-30.5
2681.43	-45
2682.1	-28
2682.78	-36
2683.45	-38.5
2684.12	-29.5
2684.8	-23.5
2685.47	-28.5
2686.14	-36
2686.82	-28.5
2687.49	-30.5
2688.16	-27
2688.83	-35.5
2689.51	-26
2690.18	-39
2690.85	-31.5
2691.52	-46
2692.19	-27
2692.86	-36.5
2693.54	-29.4485
2694.21	-39.8072
2694.88	-40.0328
2695.55	-36.5883
2696.22	-40.4289
2696.89	-35.1193
2697.56	-33.8478
2698.23	-29.1286
2698.9	-26.6979
2699.57	-29.3426
2700.24	-40.0258
2700.91	-32.8606
2701.57	-19.0748
2702.24	-28.0465
2702.91	-38.1698
2703.58	-35.1216
2704.25	-22.9447
2704.92	-39.8512
2705.58	-37.0082
2706.25	-26.2756
2706.92	-28.6159
2707.58	-39.4836
2708.25	-31.9752
2708.92	-25.5232
2709.59	-28.6707
2710.25	-29.573
2710.92	-31.3686
2711.58	-17.3654
2712.25	-33.9698
2712.92	-32.7255
2713.58	-31.4683
2714.25	-28.1449
2714.91	-35.9065
2715.58	-23.2207
2716.24	-23.5105
2716.91	-19.0967
2717.57	-41.9065
2718.23	-31.661
2718.9	-22.1351
2719.56	-35.5724
2720.23	-33.8374
2720.89	-26.1826
2721.55	-34.772
2722.22	-32.7606
2722.88	-21.086
2723.54	-29.0967
2724.2	-21.2003
2724.87	-39.1656
2725.53	-24.444
2726.19	-20.2712
2726.85	-28.9878
2727.51	-31.9488
2728.18	-25.2379
2728.84	-29.5575
2729.5	-34.4033
2730.16	-24.7328
2730.82	-20.7108
2731.48	-18.546
2732.14	-26.6711
2732.8	-32.7704
2733.46	-18.2925
2734.12	-31.935
2734.78	-31.8589
2735.44	-21.7542
2736.1	-20.5913
2736.76	-36.1737
2737.42	-29.795
2738.07	-23.6323
2738.73	-15.2008
2739.39	-28.0968
2740.05	-24.8325
2740.71	-17.3391
2741.37	-25.8798
2742.02	-27.4534
2742.68	-23.8607
2743.34	-27.6202
2743.99	-28.3641
2744.65	-19.1115
2745.31	-13.7702
2745.96	-18.7482
2746.62	-29.5327
2747.28	-29.1777
2747.93	-18.846
2748.59	-18.8373
2749.24	-17.4025
2749.9	-19.3095
2750.55	-26.9186
2751.21	-25.9511
2751.86	-30.6653
2752.52	-21.0557
2753.17	-24.1642
2753.83	-27.3255
2754.48	-31.7865
2755.14	-36.4902
2755.79	-19.9473
2756.44	-16.5624
2757.1	-22.8535
2757.75	-23.4245
2758.4	-21.5461
2759.05	-17.2669
2759.71	-22.4879
2760.36	-22.7979
2761.01	-6.03561
2761.66	-18.423
2762.32	-28.9417
2762.97	-17.201
2763.63	-5
2764.32	-18
2765.01	-17
2765.69	-18
2766.38	-23
2767.07	-29.5
2767.75	-15
2768.44	-17.5
2769.12	-21
2769.81	-19.5
2770.49	-16.5
2771.18	-7
2771.87	-23.5
2772.55	-31
2773.24	-5.5
2773.92	-11
2774.6	-18.5
2775.29	-27.5
2775.97	-10.5
2776.66	-10.5
2777.34	-22
2778.03	-23
2778.71	-21
2779.39	-5.5
2780.08	-28
2780.76	-29
2781.44	-12.5
2782.12	-16
2782.81	-15
2783.49	-15
2784.17	-20
2784.85	-18
2785.54	-20
2786.22	-6.5
2786.9	-20
2787.58	-17.5
2788.26	-24.5
2788.94	-25.5
2789.63	-13.5
2790.31	-23
2790.99	-24
2791.67	-15
2792.35	-22
2793.03	-15
2793.71	-6.5
2794.39	-24
2795.07	-17
2795.75	-17
2796.43	-20
2797.11	-26
2797.79	-24.5
2798.46	-12
2799.14	-31
2799.82	-16
2800.5	-25.5
2801.18	-25
2801.86	-14.5
2802.54	-28.5
2803.21	-10
2803.89	-34
2804.57	-20.5
2805.25	-21.5
2805.92	-8
2806.6	-17
2807.28	-31
2807.95	-22
2808.63	-11
2809.31	-29
2809.98	-18.5
2810.66	-7.5
2811.34	-22.5
2812.01	-33.5
2812.69	-23
2813.36	-25.5
2814.04	-16.5
2814.71	-18.5
2815.39	-15
2816.06	-19.5
2816.74	-25
2817.41	-13.5
2818.09	-13.5
2818.76	-27
2819.44	-30
2820.11	-4
2820.78	-10
2821.46	-11.5
2822.13	-30
2822.8	-6
2823.48	-9
2824.15	-19
2824.82	-15
2825.49	-3.5
2826.17	-23
2826.84	-23
2827.51	-27
2828.18	-8.5
2828.86	-24
2829.53	-24
2830.2	-10.5
2830.87	-7
2831.54	-30
2832.21	-6
2832.88	-7
2833.55	-30
2834.22	-36
2834.9	-17
2835.56	-17
2836.23	-38
2836.91	-18
2837.57	-15
2838.24	-17.5
2838.91	-16.5
2839.58	-28
2840.25	1
2840.92	-25
2841.59	-26
2842.26	-16
2842.93	-13
2843.6	-30
2844.26	-23
2844.93	-2
2845.6	-12.5
2846.27	-11.5
2846.93	-13
2847.6	-5.5
2848.27	-16
2848.94	-15.5
2849.6	-3.5
2850.27	-1
2850.94	-9
2851.6	-3
2852.27	5.5
2852.94	2.5
2853.6	-7
2854.27	-12
2854.93	9
2855.6	-12.5
2856.26	-6.5
2856.93	-1
2857.59	-10
2858.26	-11
2858.92	-6
2859.59	1
2860.25	-1.5
2860.92	-17
2861.58	-6.5
2862.24	-9
2862.91	-4.5
2863.57	-6.5
2864.23	-0.5
2864.9	-6.5
2865.56	-16.5
2866.22	-9
2866.89	-18.5
2867.55	-11.5
2868.21	-20
2868.87	-8.5
2869.54	-12
2870.2	-26.5
2870.86	-18.5
2871.52	-5.5
2872.18	4.5
2872.84	-23
2873.51	-21
2874.17	-8.5
2874.83	-1.5
2875.49	-14
2876.15	-12
2876.81	1.5
2877.47	-30
2878.13	-18
2878.79	-11
2879.45	-20
2880.11	-33
2880.77	-11.5
2881.43	-14
2882.09	-10
2882.75	-24.5
2883.4	-20
2884.06	-1
2884.72	-35
2885.38	-17
2886.04	-2.5
2886.7	-3
2887.35	-23
2888.01	-8
2888.67	-18
2889.33	-19
2889.98	-21
2890.64	-4.5
2891.3	-12
2891.95	-25
2892.61	-3.5
2893.27	-12.5
2893.92	-11.5
2894.58	-28
2895.23	-15
2895.89	-14
2896.55	-13.5
2897.2	-22
2897.86	-17
2898.51	-12
2899.17	-34
2899.82	-13
2900.48	-6
2901.13	-9.5
2901.79	-27
2902.44	-22.5
2903.09	-14.5
2903.75	-14.5
2904.4	-15
2905.05	-14
2905.71	-25.5
2906.36	-30
2907.01	-18.5
2907.67	-1
2908.32	-35
2908.97	-43
2909.63	-7.5
2910.28	-10.5
2910.93	-18
2911.58	-13
2912.23	-10
2912.88	-9.5
2913.54	-23
2914.19	-20
2914.84	-9
2915.49	-28
2916.14	-11
2916.79	-18
2917.44	-7.5
2918.09	-20.5
2918.74	-30
2919.39	-13
2920.04	-13
2920.69	-22
2921.34	-20
2921.99	-9
2922.64	-28
2923.29	-15
2923.94	-5
2924.59	-21.5
2925.23	-29
2925.88	-16
2926.53	-15.5
2927.18	-19
2927.83	-38
2928.48	-21
2929.12	-12
2929.77	-18
2930.42	-20
2931.07	-19
2931.71	0
2932.36	-24.5
2933.01	-23
2933.65	-0.5
2934.3	-20
2934.95	-30
2935.59	-30
2936.24	-15
2936.88	-17
2937.53	-24
2938.17	-15.5
2938.82	-22
2939.46	-12.5
2940.11	-20.5
2940.75	-14
2941.4	-47
2942.04	-27
2942.69	-27.5
2943.33	-15.5
2943.98	-14
2944.62	-26
2945.26	-17.5
2945.91	-32.5
2946.55	-21
2947.19	-18.5
2947.84	-25
2948.48	-13
2949.12	-33
2949.76	-37.5
2950.41	-14.5
2951.05	-40
2951.69	-34
2952.33	-28
2952.98	-21.5
2953.62	-38
2954.26	-20
2954.9	-13
2955.54	-45
2956.18	-33
2956.82	-28
2957.46	-26
2958.1	-27
2958.74	-26.5
2959.38	-13.5
2960.02	-31
2960.66	-31
2961.3	-23
2961.94	-7
2962.58	-37
2963.22	-41
2963.86	-21
2964.5	-24
2965.14	-25
2965.78	-33
2966.42	-23
2967.05	-33
2967.69	-29.5
2968.33	-34.5
2968.97	-17.5
2969.61	-23.5
2970.24	-48
2970.88	-25
2971.52	-16.5
2972.15	-23.5
2972.79	-41
2973.43	-27.5
2974.06	-40.5
2974.7	-31
2975.34	-25
2975.97	-16.5
2976.61	-31.5
2977.24	-44
2977.88	-31.5
2978.52	-32.5
2979.15	-51
2979.79	-26
2980.42	-22.5
2981.06	-42
2981.69	-35
2982.32	-26
2982.96	-29.5
2983.59	-30
2984.23	-38.5
2984.86	-23
2985.49	-23.5
2986.13	-30
2986.76	-34.5
2987.39	-27
2988.03	-32
2988.66	-43
2989.29	-27
2989.93	-36
2990.56	-45
2991.19	-49
2991.82	-17
2992.45	-49
2993.09	-46
2993.72	-31
2994.35	-20.5
2994.98	-44
2995.61	-48
2996.24	-25.5
2996.87	-27.5
2997.5	-28.5
2998.14	-54
2998.77	-29.5
2999.4	-32
3000.03	-37
3000.66	-34
3001.29	-29
3001.91	-42.5
3002.54	-35
3003.17	-19
3003.8	-21.5
3004.43	-23
3005.06	-32.5
3005.69	-29.5
3006.32	-36
3006.95	-38
3007.57	-29
3008.2	-13.5
3008.83	-41
3009.46	-20
3010.08	-13
3010.71	-22.5
3011.34	-53
3011.97	-44
3012.59	-14
3013.22	-35
3013.85	-37
3014.47	-23.5
3015.1	-20
3015.72	-41
3016.35	-36.5
3016.98	-32.5
3017.6	-31.5
3018.23	-29
3018.85	-27
3019.48	-26.5
3020.1	-25
3020.73	-33
3021.35	-28
3021.98	-35
3022.6	-32.5
3023.23	-37.5
3023.85	-18.5
3024.47	-39
3025.1	-34.5
3025.72	-33
3026.34	-25
3026.97	-39
3027.59	-32
3028.21	-30
3028.84	-34.5
3029.46	-40.5
3030.08	-30
3030.7	-16.5
3031.32	-31
3031.95	-32
3032.57	-34.5
3033.19	-32
3033.81	-36
3034.43	-19
3035.05	-26.5
3035.68	-32
3036.3	-37.5
3036.92	-40.5
3037.54	-22.5
3038.16	-29.5
3038.78	-47.5
3039.4	-34
3040.02	-31.5
3040.64	-26.5
3041.26	-51
3041.88	-22
3042.5	-38
3043.12	-42
3043.73	-32
3044.35	-21
3044.97	-30.5
3045.59	-31
3046.21	-58
3046.83	-28
3047.44	-37
3048.06	-38
3048.68	-24
3049.3	-33
3049.92	-40
3050.53	-37
3051.15	-24
3051.77	-28
3052.38	-38
3053	-40
3053.62	-32
3054.23	-39
3054.85	-47
3055.46	-37
3056.08	-43
3056.7	-48
3057.31	-24.5
3057.93	-21
3058.54	-36.5
3059.16	-42.5
3059.77	-48
3060.39	-37
3061	-33
3061.61	-29
3062.23	-21
3062.84	-25
3063.46	-59
3064.07	-18.5
3064.68	-17.5
3065.3	-40.5
3065.91	-43
3066.52	-34
3067.14	-31
3067.75	-48
3068.36	-36.5
3068.98	-18.5
3069.59	-42.5
3070.2	-46
3070.81	-31
3071.42	-30
3072.04	-42.5
3072.65	-37.5
3073.26	-26.5
3073.87	-33
3074.48	-46
3075.09	-32.5
3075.7	-26
3076.31	-37.5
3076.92	-49
3077.53	-32.5
3078.14	-23.5
3078.75	-30
3079.36	-38.5
3079.97	-32.5
3080.58	-37
3081.19	-34
3081.8	-38.5
3082.41	-25.5
3083.02	-40
3083.63	-47
3084.24	-32
3084.84	-26
3085.45	-38
3086.06	-34
3086.67	-36
3087.28	-28.5
3087.88	-30
3088.49	-25.5
3089.1	-34
3089.71	-34
3090.31	-30.5
3090.92	-27
3091.53	-31
3092.13	-37
3092.74	-27
3093.34	-38
3093.95	-53
3094.56	-31.5
3095.16	-30
3095.77	-29
3096.37	-38.5
3096.98	-38.5
3097.58	-17
3098.19	-34
3098.79	-33.5
3099.4	-30.5
3100	-41
3100.61	-36.5
3101.21	-48
3101.81	-24
3102.42	-40
3103.02	-43
3103.63	-38.5
3104.23	-30
3104.83	-26.5
3105.43	-24
3106.04	-26.5
3106.64	-36
3107.24	-29.5
3107.85	-29
3108.45	-24
3109.05	-38
3109.65	-46
3110.25	-36
3110.86	-30
3111.46	-36.5
3112.06	-41
3112.66	-49
3113.26	-41
3113.86	-31
3114.46	-40
3115.06	-23.5
3115.66	-23.5
3116.26	-33
3116.86	-49
3117.46	-32.5
3118.06	-32.5
3118.66	-36
3119.26	-38.5
3119.86	-29
3120.46	-40
3121.06	-47
3121.66	-20
3122.26	-30.5
3122.85	-49
3123.45	-41
3124.05	-22.5
3124.65	-36
3125.25	-37
3125.84	-26.5
3126.44	-31
3127.04	-46
3127.64	-32
3128.23	-20.5
3128.83	-35.5
3129.43	-44
3130.02	-38
3130.62	-31
3131.22	-29.5
3131.81	-31
3132.41	-34
3133	-28
3133.6	-49
3134.19	-24
3134.79	-24
3135.39	-34.5
3135.98	-56
3136.58	-26.5
3137.17	-19
3137.76	-38
3138.36	-39
3138.95	-28
3139.55	-38
3140.14	-41
3140.73	-46
3141.33	-27
3141.92	-39
3142.51	-41
3143.11	-39.5
3143.7	-35.5
3144.29	-33
3144.89	-27
3145.48	-25
3146.07	-41
3146.66	-41
3147.26	-39.5
3147.85	-27.5
3148.44	-22.5
3149.03	-36.5
3149.62	-41
3150.21	-24
3150.8	-41
3151.39	-31
3151.99	-29.5
3152.58	-47
3153.17	-22
3153.76	-33
3154.35	-26.5
3154.94	-39
3155.53	-46
3156.12	-36
3156.71	-25.5
3157.29	-43
3157.88	-40.5
3158.47	-24.5
3159.06	-49
3159.65	-27
3160.24	-35
3160.83	-26
3161.42	-48
3162	-53
3162.59	-31
3163.18	-41
3163.77	-43
3164.35	-35
3164.94	-30
3165.53	-43
3166.12	-47
3166.7	-26.5
3167.29	-36
3167.88	-32.5
3168.46	-38
3169.05	-34.5
3169.64	-25
3170.22	-30
3170.81	-35.5
3171.39	-27.5
3171.98	-56
3172.56	-35.5
3173.15	-27.5
3173.73	-33.5
3174.32	-33.5
3174.9	-35
3175.49	-19.5
3176.07	-42
3176.65	-41
3177.24	-41
3177.82	-25
3178.41	-37
3178.99	-33.5
3179.57	-45
3180.16	-31.5
3180.74	-38
3181.32	-34.5
3181.91	-35
3182.49	-38.5
3183.07	-45
3183.65	-28
3184.23	-20.5
3184.82	-46
3185.4	-31
3185.98	-39.5
3186.56	-41
3187.14	-43
3187.72	-27
3188.3	-40
3188.89	-33.5
3189.47	-43
3190.05	-24.5
3190.63	-31
3191.21	-37
3191.79	-56
3192.37	-30
3192.95	-30
3193.53	-33.5
3194.11	-33
3194.69	-35
3195.26	-33
3195.84	-31.5
3196.42	-28
3197	-21
3197.58	-62
3198.16	-31
3198.74	-23
3199.31	-30.5
3199.89	-40
