100.582	451
101.867	423.5
103.152	425
104.437	440.5
105.721	427
107.004	414
108.287	396
109.571	399
110.853	379
112.136	385.5
113.418	386
114.7	356
115.981	375
117.262	361
118.543	348.5
119.823	334.5
121.103	344
122.383	335
123.663	331
124.942	340
126.221	317
127.499	345.5
128.777	326.5
130.056	307.5
131.333	322
132.61	305.5
133.887	329.5
135.163	323
136.439	321
137.715	293
138.992	307.5
140.267	305
141.541	293.5
142.816	286
144.09	261
145.364	289
146.637	283.5
147.911	267.5
149.184	242
150.457	244
151.729	230
153.001	245
154.273	237
155.544	264.5
156.815	234.5
158.086	218.5
159.356	223.5
160.626	215
161.896	214
163.165	213
164.434	229
165.703	202.5
166.971	217
168.24	206
169.507	202
170.774	181
172.042	172
173.309	184
174.575	186.5
175.841	193
177.107	164
178.373	186.5
179.637	164
180.902	171.5
182.167	148
183.431	197.5
184.695	177.5
185.958	173
187.222	159
188.485	165.5
189.747	170
191.009	141
192.272	151
193.534	154.5
194.795	159
196.055	161
197.316	158.5
198.577	155
199.837	155
201.096	153
202.356	136
203.615	155
204.873	151
206.132	149
207.39	137
208.648	148
209.905	155
211.162	152.5
212.419	131
213.675	152
214.932	161
216.187	140.5
217.443	139.5
218.697	125
219.953	126
221.207	136
222.462	136
223.715	133
224.969	139
226.222	127
227.475	134.5
228.727	146.5
229.98	120
231.232	127
232.483	137
233.734	114
234.986	109
236.236	139.5
237.486	125
238.737	137
239.986	137
241.235	160
242.484	164
243.733	157.5
244.981	182
246.229	196
247.477	222
248.725	222.5
249.971	242.5
251.219	228
252.465	212
253.711	176
254.957	143
256.203	136.5
257.448	127.5
258.693	148
259.937	156.5
261.181	128
262.425	127
263.669	134
264.912	131.5
266.155	119
267.398	126
268.64	128.5
269.881	150
271.123	119
272.364	100
273.605	115.5
274.846	102.5
276.086	124.5
277.326	116
278.566	117
279.806	110
281.045	105
282.283	119.5
283.522	110
284.76	91
285.998	93
287.235	98
288.473	102.5
289.71	96
290.946	97
292.182	94
293.418	91
294.654	86.5
295.888	93
297.123	106
298.358	94
299.592	102
300.826	110
302.06	86.5
303.293	81.5
304.526	86
305.759	90
306.991	99
308.223	74
309.455	101.5
310.687	85
311.917	87
313.148	83.5
314.379	94
315.609	81.5
316.839	57
318.068	76
319.297	81.5
320.526	85
321.754	70.5
322.982	76
324.21	70
325.438	71
326.665	64
327.892	80
329.118	78.5
330.345	61.5
331.571	82
332.797	80.5
334.022	64
335.247	63
336.471	84
337.696	83
338.92	69
340.144	82
341.367	76.5
342.591	57
343.813	72.5
345.036	70
346.257	71
347.48	65
348.701	76
349.922	80
351.143	75
352.363	65
353.583	55
354.803	81
356.023	67.5
357.243	62
358.462	69
359.68	71
360.899	70.5
362.117	62.5
363.334	77
364.551	73.5
365.769	58
366.986	61
368.202	58
369.418	54
370.633	62.5
371.849	70.5
373.065	59.5
374.279	48.5
375.494	65
376.708	76
377.921	58
379.136	48.5
380.349	76
381.562	48.5
382.774	48.5
383.987	30
385.198	63
386.41	64
387.621	51
388.832	59
390.043	65
391.253	44
392.463	50
393.674	55.5
394.883	61.5
396.092	47
397.301	40.5
398.509	58
399.717	57.5
400.925	34.5
402.133	44
403.34	59
404.547	59.5
405.753	38
406.96	54
408.165	46.5
409.371	47.5
410.576	39
411.781	50
412.986	53.5
414.191	39
415.394	47.5
416.598	54
417.802	35.5
419.005	42.5
420.208	45
421.41	58.5
422.613	30
423.815	30
425.016	49
426.217	50
427.418	40
428.619	33
429.818	40.5
431.019	43
432.218	30.5
433.418	39
434.617	54
435.815	43
437.014	36.5
438.212	56
439.41	43
440.607	47
441.805	40.5
443.001	45.5
444.198	35.5
445.394	28
446.59	35.5
447.785	47.5
448.98	36.5
450.175	33
451.37	42
452.564	37
453.758	30.5
454.952	45
456.145	52
457.339	20
458.531	21
459.724	37
460.916	20.5
462.107	25
463.299	33.5
464.49	46
465.681	36
466.871	21
468.062	39
469.252	45
470.441	34
471.631	18
472.819	37
474.008	35.5
475.196	21.5
476.385	27
477.572	57.5
478.76	17
479.946	27
481.133	24
482.32	37.5
483.506	28.5
484.692	26.5
485.877	31
487.063	31
488.247	28
489.432	41
490.616	36.5
491.8	20
492.984	38
494.167	35
495.35	39.5
496.533	32
497.715	30
498.897	32.5
500.079	23
501.26	25
502.441	24
503.622	31
504.803	16
505.983	14.5
507.163	28
508.342	28.5
509.522	19.5
510.701	27
511.88	36
513.058	27
514.236	8
515.413	21.5
516.591	31.5
517.768	17.5
518.945	20
520.121	28
521.297	17.5
522.473	-7
523.648	21.5
524.823	33
525.998	28
527.173	6
528.348	16.5
529.522	30.5
530.694	28
531.868	23
533.041	12
534.214	30.5
535.386	16
536.558	11
537.731	31
538.902	26
540.073	3
541.244	14.5
542.414	18.5
543.585	25
544.754	14
545.924	25
547.094	24
548.262	13
549.431	16
550.6	29.5
551.767	10
552.935	15.5
554.103	28
555.27	23.5
556.436	0
557.603	19.5
558.769	24.5
559.935	25
561.1	22.5
562.266	16
563.431	26
564.595	29
565.759	8
566.924	2
568.087	11
569.25	1
570.414	3.5
571.576	23
572.739	16.5
573.901	12.5
575.062	10
576.224	22.5
577.385	24
578.546	11
579.707	21
580.867	21.5
582.028	6
583.187	2
584.347	13
585.505	19
586.664	17
587.822	26.5
588.98	39
590.138	6
591.296	16.5
592.453	35
593.61	14
594.767	10.5
595.922	1
597.079	28
598.234	8
599.39	23.5
600.544	27
601.699	20
602.854	12
604.008	13
605.161	20.5
606.315	14.5
607.468	23
608.621	14
609.774	29.5
610.926	6
612.078	2
613.229	2.5
614.381	9
615.532	9
616.682	-2
617.833	16
618.983	12
620.133	9
621.282	-6
622.431	22
623.58	17.5
624.729	5.5
625.877	12.5
627.025	21
628.172	5
629.32	-1
630.467	4.5
631.614	11
632.76	2.5
633.906	16.5
635.052	18.5
636.197	13
637.343	4
638.488	13
639.632	17
640.776	7
641.92	-14
643.064	10
644.207	-3
645.35	-1
646.493	5
647.635	12.5
648.777	3
649.919	9
651.06	9
652.202	7.5
653.342	-14
654.483	-3
655.624	5.5
656.764	-4
657.903	-22
659.043	24.5
660.181	13.5
661.32	-3.5
662.459	17
663.596	14.5
664.735	19
665.872	-16
667.009	-6
668.146	5.5
669.282	4
670.419	6
671.555	10
672.69	12
673.826	0.5
674.96	9
676.096	21.5
677.23	7
678.364	6.5
679.498	-17
680.631	11
681.765	0.5
682.897	-4
684.03	-4
685.163	-1.5
686.294	-5
687.426	5
688.557	18
689.689	-7.5
690.819	2
691.949	6.5
693.079	2
694.21	5.5
695.339	15
696.468	11
697.597	6
698.725	0.5
699.854	12
700.982	15
702.11	3.5
703.237	0
704.364	7
705.491	9
706.617	6.5
707.744	-20
708.87	11
709.995	17
711.12	2
712.245	30
713.37	20.5
714.495	19.5
715.618	-12
716.742	17
717.865	21
718.989	4.5
720.112	2
721.234	18
722.356	25.5
723.478	14
724.6	27.5
725.721	27.5
726.842	21
727.962	7
729.083	1
730.203	4.5
731.323	3.5
732.442	17.5
733.562	30
734.681	14.5
735.799	17
736.917	13
738.036	7.5
739.153	12
740.27	1
741.387	4
742.505	2
743.62	1.5
744.736	-9
745.853	16
746.968	3
748.083	-5
749.199	-1
750.313	18.5
751.427	3.5
752.541	20.5
753.655	-11
754.768	11.5
755.882	3
756.994	-6
758.107	16.5
759.219	1.5
760.331	13.5
761.443	-7
762.554	11.5
763.665	3
764.776	7
765.885	11
766.996	-1
768.106	11
769.215	-17
770.324	7
771.434	9.5
772.542	-4.5
773.65	13
774.758	8.5
775.865	9.5
776.973	-2
778.081	1
779.187	0
780.293	3.5
781.399	4
782.506	15
783.611	12
784.716	3
785.821	14.5
786.926	10
788.03	-4.5
789.134	10
790.238	-7
791.341	15
792.444	-1.5
793.547	3
794.65	19.5
795.752	0
796.854	9
797.956	18
799.057	2
800.158	6.5
801.259	-15
802.359	6
803.459	9.5
804.559	0
805.659	7
806.758	15
807.857	9
808.955	-4
810.053	7
811.152	20.5
812.25	0.5
813.347	31
814.444	26
815.541	3.5
816.638	16.5
817.733	17
818.83	15.5
819.925	17.5
821.02	11
822.115	15
823.21	21
824.305	17
825.398	24
826.492	34
827.586	31
828.679	32.5
829.772	28.5
830.865	48.5
831.957	30.5
833.049	36
834.141	42
835.232	41
836.323	45
837.414	23
838.505	48
839.595	39
840.685	37
841.774	40
842.864	52
843.952	39
845.041	33
846.129	41
847.218	36.5
848.306	44
849.393	40
850.48	42
851.567	37.5
852.654	46
853.74	11
854.826	49.5
855.912	28.5
856.997	9
858.082	21
859.167	46.5
860.252	26
861.336	39
862.42	40
863.504	21
864.587	30
865.67	47
866.753	38
867.835	40
868.917	42.5
869.999	61
871.081	41.5
872.162	40.5
873.243	39.5
874.323	39.5
875.404	23.5
876.484	33
877.564	45.5
878.643	25
879.722	20
880.802	25
881.88	37.5
882.958	31.5
884.036	40
885.113	49.5
886.191	32.5
887.268	13.5
888.344	17
889.421	32
890.498	33.5
891.573	23
892.649	1
893.724	39
894.799	25
895.874	32
896.948	16
898.022	22.5
899.096	23
900.17	8
901.243	39.5
902.315	27.5
903.389	22
904.461	25
905.533	39.5
906.605	28
907.676	22
908.747	35
909.818	37.5
910.888	23.5
911.958	20
913.028	37.5
914.098	25.5
915.167	18.5
916.237	24.5
917.306	30.5
918.374	18
919.442	26
920.51	40
921.577	20.5
922.644	12
923.711	14
924.778	23
925.845	30.5
926.911	17
927.977	26
929.042	23.5
930.107	14
931.173	17
932.237	12
933.301	25.5
934.365	16
935.429	0
936.492	10
937.556	26
938.619	10.5
939.681	10
940.743	28
941.805	9
942.867	21
943.928	22
944.989	28
946.05	9
947.11	17
948.17	28
949.23	20.5
950.29	10
951.349	22
952.409	26.5
953.467	21
954.526	23.5
955.584	20.5
956.641	25
957.699	10
958.756	17.5
959.813	22
960.869	25
961.926	9
962.982	27
964.038	6.5
965.094	22
966.149	19
967.204	39
968.258	22
969.312	25
970.366	24
971.42	31
972.473	28
973.527	34
974.58	11
975.631	22.5
976.684	17
977.736	16
978.787	19
979.839	7.5
980.89	8
981.94	12
982.991	15
984.041	11
985.091	2
986.141	15.5
987.19	9
988.239	9
989.288	4
990.336	-1
991.384	5.5
992.432	-10
993.48	9
994.527	10
995.574	0.5
996.62	-6
997.666	12
998.713	-2
999.759	1
1000.8	0
1001.85	14
1002.89	1.5
1003.94	1
1004.98	4
1006.03	10.5
1007.07	-4
1008.11	-11
1009.16	17
1010.2	14
1011.24	14
1012.29	5
1013.33	19.5
1014.37	9.5
1015.41	-1
1016.45	11.5
1017.49	16
1018.53	-2
1019.57	-10.5
1020.61	-9
1021.65	17.5
1022.69	-2
1023.73	9
1024.77	29.5
1025.81	10.5
1026.85	-12
1027.88	16
1028.92	12.5
1029.96	14.5
1031	6
1032.03	4
1033.07	15
1034.1	7
1035.14	3
1036.18	16.5
1037.21	22.5
1038.25	16
1039.28	11
1040.32	16
1041.35	9
1042.38	0
1043.42	-12
1044.45	8.5
1045.48	-6
1046.52	25
1047.55	19
1048.58	20
1049.61	-14
1050.64	5
1051.67	19
1052.71	11.5
1053.74	-6
1054.77	17
1055.8	20.5
1056.83	17.5
1057.85	28
1058.88	31.5
1059.91	16
1060.94	15.5
1061.97	33
1063	35.5
1064.03	31
1065.05	8
1066.08	31.5
1067.11	16
1068.13	11.5
1069.16	29.5
1070.19	28
1071.21	31.5
1072.24	20
1073.26	32
1074.29	30
1075.31	29.5
1076.34	12
1077.36	38
1078.38	26.5
1079.41	28
1080.43	42
1081.45	32
1082.47	25
1083.5	14
1084.52	35.5
1085.54	9
1086.56	24
1087.58	35
1088.6	22.5
1089.62	18.5
1090.64	18
1091.66	19
1092.68	27
1093.7	11
1094.72	9
1095.74	22
1096.76	19
1097.78	15
1098.79	12
1099.81	9.5
1100.83	13.5
1101.85	3.5
1102.86	12
1103.88	21
1104.9	3.5
1105.91	-5
1106.93	19.5
1107.94	9.5
1108.96	7
1109.97	11.5
1110.99	18.5
1112	0.5
1113.01	11
1114.03	-1
1115.04	20
1116.05	0
1117.07	1
1118.08	10
1119.09	10
1120.1	5
1121.11	7
1122.13	3.5
1123.14	15.5
1124.15	-0.5
1125.16	14.5
1126.17	0.5
1127.18	-10
1128.19	7
1129.2	-2.5
1130.2	1
1131.21	-9
1132.22	1
1133.23	5
1134.24	-14.5
1135.25	-8.5
1136.25	-7
1137.26	2
1138.27	-9.5
1139.27	-8
1140.28	5.5
1141.28	-7
1142.29	-7
1143.29	-0.5
1144.3	-2
1145.3	-5.5
1146.31	4
1147.31	0
1148.32	-5.5
1149.32	-14.9095
1150.32	-13.7214
1151.33	1.2048
1152.33	-4.05235
1153.33	-8.28557
1154.33	1.19187
1155.33	-4.35603
1156.34	-8.98947
1157.34	-8.4377
1158.34	-0.041612
1159.34	-1.58787
1160.34	-3.75031
1161.34	-3.17218
1162.34	-2.38336
1163.34	-2.85581
1164.34	-11.3822
1165.34	0.0956384
1166.33	-8.94396
1167.33	-8.63449
1168.33	-4.0218
1169.33	-2.37139
1170.33	-5.2811
1171.32	-13.0396
1172.32	-11.4286
1173.32	-2.68
1174.31	3.01568
1175.31	-2.32927
1176.31	-1.9952
1177.3	-2.46551
1178.3	4.11395
1179.29	-4.55833
1180.29	-7.25691
1181.28	4.57088
1182.27	-2.3619
1183.27	-14.6711
1184.26	1.52994
1185.25	-8.49954
1186.25	-1.20124
1187.24	-2.11467
1188.23	0.605583
1189.22	-4.62418
1190.22	-6.67072
1191.21	-5.93984
1192.2	-5.82828
1193.19	0.264367
1194.18	-8.2139
1195.17	-5.13254
1196.16	1.78958
1197.15	0.983908
1198.14	-3.43316
1199.13	-5.18943
1200.12	-9.8493
1201.11	-1.66852
1202.09	6.30279
1203.08	-4.10061
1204.07	-6.75126
1205.06	-6.67844
1206.04	4.14503
1207.03	-6.17429
1208.02	-0.468469
1209	5.79658
1209.99	-5.96918
1210.98	-2.76562
1211.96	7.56198
1212.95	5.59894
1213.93	-1.80755
1214.92	-7.55229
1215.9	6.09555
1216.89	8.45098
1217.87	4.32581
1218.85	-7.22168
1219.84	-7.44465
1220.82	-0.422169
1221.8	-4.58981
1222.78	1.14076
1223.77	10.1344
1224.75	6.96005
1225.73	8.10625
1226.71	12.6815
1227.69	4.19539
1228.67	6.68333
1229.65	7.23055
1230.63	4.96346
1231.61	0.797777
1232.59	-0.594397
1233.57	7.38154
1234.55	11.2654
1235.53	-9.26168
1236.51	16.2436
1237.49	9.45375
1238.46	16.8553
1239.44	2.30894
1240.42	13.9649
1241.4	18.0806
1242.37	5.68705
1243.35	16.1702
1244.32	19.7849
1245.3	24.0794
1246.28	17.7869
1247.25	24.2259
1248.23	30.7269
1249.2	21.0457
1250.18	23.1181
1251.15	37.5363
1252.12	36.123
1252.72	27
1253.73	41
1254.74	46.5
1255.75	53
1256.75	40
1257.76	60
1258.77	47.5
1259.78	48
1260.79	44
1261.79	47
1262.8	70
1263.81	48
1264.81	49
1265.82	51
1266.82	48.5
1267.83	46
1268.83	40.5
1269.84	49
1270.84	46
1271.85	23
1272.85	37.5
1273.86	45
1274.86	35
1275.86	38.5
1276.87	15
1277.87	46.5
1278.87	47
1279.88	50.5
1280.88	38
1281.88	28
1282.88	36
1283.88	23
1284.88	25
1285.88	15
1286.89	21
1287.89	32
1288.89	44
1289.89	14
1290.89	35
1291.89	38.5
1292.88	46
1293.88	42.5
1294.88	47.5
1295.88	45.5
1296.88	49
1297.88	21
1298.88	55
1299.87	57.5
1300.87	57
1301.87	50.5
1302.86	59.5
1303.86	59
1304.86	52.5
1305.85	30
1306.85	36
1307.85	37
1308.84	38.5
1309.84	28
1310.83	34.5
1311.83	41
1312.82	30.5
1313.81	27.5
1314.81	37.5
1315.8	6
1316.8	35.5
1317.79	38
1318.78	16
1319.77	24.5
1320.77	21.5
1321.76	17
1322.75	23
1323.74	22
1324.73	13
1325.72	16
1326.72	12
1327.71	3
1328.7	16
1329.69	5.5
1330.68	10.5
1331.67	17
1332.66	0
1333.65	2
1334.63	-3
1335.62	2
1336.61	5
1337.6	-16
1338.59	1
1339.58	1.5
1340.56	-3
1341.55	10
1342.54	7.5
1343.53	10
1344.51	-7
1345.5	2
1346.48	6.5
1347.47	13.5
1348.45	-9
1349.44	-2.5
1350.43	10.5
1351.41	11.5
1352.4	-1.5
1353.38	2
1354.36	0.5
1355.35	4
1356.33	-7
1357.31	6
1358.3	7.5
1359.28	10
1360.26	-9
1361.25	4.5
1362.23	-10
1363.21	-2
1364.19	5
1365.17	1.5
1366.15	-10
1367.14	2.5
1368.12	-4.5
1369.1	9
1370.08	-2
1371.06	-3.5
1372.04	6.5
1373.02	0
1373.99	-3.5
1374.97	-4.5
1375.95	8
1376.93	-12.5
1377.91	-15.5
1378.89	-1
1379.86	-2
1380.84	-16
1381.82	-12.5
1382.8	-6
1383.77	-1
1384.75	0
1385.73	-6.5
1386.7	-11
1387.68	-9
1388.65	-11.5
1389.63	-7
1390.6	-12
1391.58	-13
1392.55	-15
1393.53	-0.5
1394.5	-14
1395.48	-11
1396.45	2
1397.42	-3
1398.4	-15
1399.37	-9
1400.34	1
1401.31	4
1402.29	-12
1403.26	-0.5
1404.23	-3.5
1405.2	-12.5
1406.17	-15
1407.14	-8
1408.11	9
1409.08	-19.5
1410.05	-10
1411.02	-1.5
1411.99	-8
1412.96	-13.5
1413.93	1
1414.9	10
1415.87	-13
1416.84	-9
1417.81	6.5
1418.78	-4.5
1419.74	4
1420.71	-6.5
1421.68	2.5
1422.65	5
1423.61	-7.5
1424.58	2.5
1425.55	5.5
1426.51	5.5
1427.48	6
1428.44	29
1429.41	18
1430.37	26
1431.34	33.5
1432.3	52
1433.27	34
1434.23	44.5
1435.2	53
1436.16	46.5
1437.12	58
1438.09	71
1439.05	54
1440.01	56
1440.97	49
1441.94	58
1442.9	51.5
1443.86	35
1444.82	29.5
1445.78	54
1446.74	53.5
1447.7	32
1448.67	34
1449.63	34.5
1450.59	30
1451.55	18.5
1452.5	22.5
1453.46	28
1454.42	43
1455.38	19.5
1456.34	34.5
1457.3	25
1458.26	10
1459.21	23.5
1460.17	24
1461.13	16
1462.09	16
1463.04	-1
1464	19
1464.96	2
1465.91	4
1466.87	8.5
1467.82	-1
1468.78	10.5
1469.73	-2.5
1470.69	-3
1471.64	-3.5
1472.6	1
1473.55	-20
1474.51	-14.5
1475.46	-16
1476.41	-18
1477.37	-12
1478.32	-10
1479.27	-26.5
1480.23	-12
1481.18	-13.5
1482.13	-10
1483.08	-13
1484.03	-13
1484.98	-2.5
1485.94	-41
1486.89	-29
1487.84	-1.5
1488.79	-13
1489.74	-17.5
1490.69	-27
1491.64	-11
1492.59	-13
1493.54	-17
1494.48	-18
1495.43	-12.5
1496.38	-16.5
1497.33	-26.5
1498.28	-14
1499.23	-19
1500.17	-38.5
1501.12	-12.5
1502.07	-18
1503.01	-21
1503.96	-30
1504.91	-15
1505.85	-7.5
1506.8	-33
1507.74	-19
1508.69	-23
1509.64	-21
1510.58	-28
1511.52	-24
1512.47	-19
1513.41	-22
1514.36	-18
1515.3	-28.5
1516.24	-9.5
1517.19	-17
1518.13	-27.5
1519.07	-15
1520.01	-23.5
1520.96	-20.5
1521.9	-16.5
1522.84	-16.5
1523.78	-29
1524.72	-14
1525.66	-15
1526.6	-16
1527.55	-18
1528.49	-7
1529.43	-10
1530.37	-21
1531.3	-24
1532.24	-27.5
1533.18	-17.5
1534.12	-14.5
1535.06	-9
1536	-10.5
1536.94	-17
1537.88	-16
1538.81	-27
1539.75	-21
1540.69	-31
1541.62	-22.5
1542.56	-20
1543.5	-25
1544.43	-28.5
1545.37	-26
1546.3	-3.5
1547.24	-24
1548.18	-20.5
1549.11	-8
1550.05	-22
1550.98	-26
1551.91	-22
1552.85	-31
1553.78	-15
1554.72	-22
1555.65	-21.5
1556.58	-21
1557.51	-12.5
1558.45	-26
1559.38	-20.5
1560.31	-21.5
1561.24	-23
1562.17	-21
1563.11	-19
1564.04	-23.5
1564.97	-24
1565.9	-19
1566.83	-26.5
1567.76	-12.5
1568.69	-24
1569.62	-15
1570.55	-26
1571.48	-16.5
1572.41	-30.5
1573.34	-32
1574.26	-20
1575.19	-33
1576.12	-32
1577.05	-30.5
1577.98	-22
1578.9	-32
1579.83	-26.5
1580.76	-17
1581.68	-31
1582.61	-17
1583.54	-22
1584.46	-24
1585.39	-27
1586.31	-29.5
1587.24	-22
1588.16	-23
1589.09	-32
1590.01	-22
1590.94	-21
1591.86	-28.5
1592.78	-41.5
1593.71	-22.5
1594.63	-33
1595.55	-15
1596.48	-27.5
1597.4	-19
1598.32	-26.5
1599.24	-24.5
1600.17	-32
1601.09	-30
1602.01	-24
1602.93	-20.5
1603.85	-22.5
1604.77	-30
1605.69	-40
1606.61	-18.5
1607.53	-19.5
1608.45	-25.5
1609.37	-28.5
1610.29	-23.5
1611.21	-31
1612.13	-24.5
1613.05	-30.5
1613.96	-20
1614.88	-28
1615.8	-32
1616.72	-15.5
1617.63	-19
1618.55	-30
1619.47	-25.5
1620.38	-26
1621.3	-21.5
1622.22	-28
1623.13	-36.5
1624.05	-25
1624.96	-14
1625.88	-20
1626.79	-21
1627.71	-19.5
1628.62	-22.5
1629.54	-25
1630.45	-22.5
1631.37	-27
1632.28	-25
1633.19	-15.5
1634.1	-17
1635.02	-34
1635.93	-18.5
1636.84	-7
1637.75	-15
1638.67	-21
1639.58	-31
1640.49	-18.5
1641.4	-28
1642.31	-15
1643.22	-2.5
1644.13	-1
1645.04	-12
1645.95	2
1646.86	1
1647.77	12.5
1648.68	1
1649.59	29
1650.5	26
1651.41	23
1652.31	38
1653.22	29
1654.13	36
1655.04	42.5
1655.95	45
1656.85	45
1657.76	47
1658.67	20
1659.57	21
1660.48	42
1661.38	4
1662.29	15
1663.2	7.5
1664.1	-1.5
1665.01	3.5
1665.91	-16
1666.81	-26
1667.72	-7.5
1668.62	-9
1669.53	-15
1670.43	-18
1671.33	-15
1672.24	-29
1673.14	-18
1674.04	-27
1674.94	-28
1675.85	-14.5
1676.75	-21
1677.65	-22
1678.55	-25.5
1679.45	-21
1680.35	-19
1681.25	-24
1682.15	-21
1683.05	-21
1683.95	-21
1684.85	-30
1685.75	-21
1686.65	-24.5
1687.55	-18
1688.45	-28.5
1689.35	-15
1690.25	-24.5
1691.15	-30
1692.04	-24
1692.94	-27.5
1693.84	-21
1694.74	-33
1695.63	-16
1696.53	-23
1697.43	-27
1698.32	-39.5
1699.22	-28.5
1700.11	-20.5
1701.01	-26
1701.9	-27
1702.8	-25
1703.69	-23.5
1704.59	-25
1705.48	-25
1706.38	-26.5
1707.27	-23
1708.16	-32
1709.06	-24.5
1709.95	-13
1710.84	-44
1711.74	-33
1712.63	-27
1713.52	-28.5
1714.41	-26
1715.3	-15
1716.2	-31
1717.09	-44
1717.98	-27
1718.87	-16.5
1719.76	-28
1720.65	-14
1721.54	-26
1722.43	-32.5
1723.32	-16
1724.21	-38
1725.1	-27
1725.99	-18
1726.88	-33
1727.76	-23
1728.65	-26
1729.54	-23
1730.43	-24
1731.31	-30.5
1732.2	-10
1733.09	-23
1733.98	-37
1734.86	-13
1735.75	-8.5
1736.63	-23
1737.52	-23.5
1738.41	-26.5
1739.29	-13
1740.18	-24
1741.06	-21
1741.95	-22
1742.83	-13.5
1743.72	-19
1744.6	0
1745.48	0
1746.37	-20
1747.25	-13
1748.13	-13
1749.02	-28
1749.9	-36
1750.78	-10.5
1751.66	-15
1752.54	-26
1753.43	-13.75
1754.31	-20
1755.19	-7.5
1756.07	-23
1756.95	-37.5
1757.83	-27
1758.71	-26
1759.59	-31
1760.47	-27.5
1761.35	-8.5
1762.23	-36
1763.11	-21.5
1763.99	-29
1764.87	-28
1765.74	-38
1766.62	-22.5
1767.5	-21.5
1768.38	-28
1769.25	-40
1770.13	-33.5
1771.01	-34.5
1771.89	-27
1772.76	-26
1773.64	-20
1774.51	-22.5
1775.39	-25
1776.27	-33.5
1777.14	-26.5
1778.02	-28
1778.89	-43
1779.76	-31.5
1780.64	-24
1781.51	-26
1782.39	-32.5
1783.26	-24.5
1784.13	-25
1785.01	-33
1785.88	-32
1786.75	-20.5
1787.63	-40.5
1788.5	-31
1789.37	-20
1790.24	-28.5
1791.11	-34
1791.98	-28
1792.86	-30.5
1793.73	-15
1794.6	-30.5
1795.47	-22.5
1796.34	-23
1797.21	-24
1798.08	-32.5
1798.95	-24
1799.82	-13
1800.68	-30.5
1801.55	-31
1802.42	-16.5
1803.29	-30
1804.16	-17.5
1805.03	-36.5
1805.89	-18.5
1806.76	-43
1807.63	-25
1808.49	-28.5
1809.36	-29.5
1810.23	-40
1811.09	-25
1811.96	-27.5
1812.83	-32
1813.69	-29
1814.56	-21
1815.42	-20.5
1816.29	-26
1817.15	-33.5
1818.02	-28.5
1818.88	-26.5
1819.74	-45
1820.61	-29
1821.47	-26
1822.33	-31
1823.2	-21
1824.06	-41
1824.92	-27
1825.78	-29
1826.65	-25.5
1827.51	-21
1828.37	-33.5
1829.23	-52
1830.09	-26
1830.95	-19
1831.81	-17
1832.67	-38
1833.53	-38.5
1834.39	-29
1835.25	-33
1836.11	-31.5
1836.97	-24
1837.83	-22
1838.69	-37.5
1839.55	-35.5
1840.41	-21.5
1841.26	-11
1842.12	-37
1842.98	-24
1843.84	-33
1844.69	-45
1845.55	-27.5
1846.41	-18.5
1847.26	-32
1848.12	-29
1848.98	-23.5
1849.83	-19
1850.69	-40
1851.54	-31
1852.4	-30.5
1853.25	-29
1854.11	-57
1854.96	-40
1855.82	-29
1856.67	-49
1857.52	-28.5
1858.38	-29
1859.23	-25
1860.08	-30
1860.93	-37
1861.79	-32.5
1862.64	-20
1863.49	-23.5
1864.34	-35
1865.19	-19
1866.05	-19.5
1866.9	-27.5
1867.75	-26
1868.6	-4.5
1869.45	-48
1870.3	-26
1871.15	-22.5
1872	-18.5
1872.85	-30.5
1873.7	-34
1874.55	-23
1875.4	-24.5
1876.24	-41
1877.09	-25.5
1877.94	-17.5
1878.79	-33
1879.64	-32.5
1880.48	-23.5
1881.33	-18
1882.18	-40
1883.02	-22
1883.87	-31
1884.72	-36
1885.56	-40
1886.41	-39.5
1887.25	-21
1888.1	-31
1888.94	-27
1889.79	-30
1890.63	-15
1891.48	-48
1892.32	-30
1893.17	-25
1894.01	-28
1894.85	-40
1895.7	-40.5
1896.54	-20
1897.38	-25
1898.23	-31
1899.07	-24
1899.91	-32
1900.75	-35
1901.59	-27
1902.44	-28.5
1903.28	-28
1904.12	-36
1904.96	-31
1905.8	-23
1906.64	-54
1907.48	-32.5
1908.32	-25
1909.16	-25
1910	-46
1910.84	-23
1911.68	-15.5
1912.51	-38
1913.35	-33
1914.19	-27
1915.03	-28
1915.87	-34
1916.7	-27.5
1917.54	-24
1918.38	-27
1919.21	-35
1920.05	-36.5
1920.89	-19.5
1921.72	-42.5
1922.56	-35.5
1923.4	-25.5
1924.23	-29
1925.07	-27
1925.9	-30.5
1926.74	-5
1927.57	-33
1928.41	-39.5
1929.24	-32.5
1930.07	-17
1930.91	-28
1931.74	-31.5
1932.57	-23
1933.41	-27
1934.24	-22
1935.07	-38.5
1935.9	-28
1936.74	-30
1937.57	-35.5
1938.4	-20.5
1939.23	-40
1940.06	-41
1940.89	-22
1941.72	-22
1942.55	-32
1943.38	-34.5
1944.21	-32
1945.04	-22
1945.87	-31
1946.7	-35
1947.53	-33
1948.36	-16.5
1949.19	-38.5
1950.02	-33
1950.84	-35
1951.67	-41
1952.5	-44
1953.33	-39
1954.15	-28.5
1954.98	-15
1955.81	-28
1956.64	-32.5
1957.46	-30.5
1958.29	-34
1959.11	-17.5
1959.94	-29
1960.76	-20
1961.59	-31
1962.41	-32.5
1963.24	-25.5
1964.06	-30
1964.89	-36
1965.71	-17
1966.53	-37
1967.36	-37.5
1968.18	-29.5
1969	-21.5
1969.83	-31
1970.65	-45
1971.47	-25
1972.3	-22
1973.12	-34.5
1973.94	-39.5
1974.76	-32
1975.58	-35
1976.4	-29
1977.22	-42
1978.04	-39
1978.86	-25
1979.68	-38
1980.5	-19.5
1981.32	-24
1982.14	-18.5
1982.96	-43
1983.78	-28
1984.6	-26
1985.42	-39.5
1986.24	-30
1987.06	-28.5
1987.87	-22
1988.69	-25
1989.51	-28.5
1990.32	-20
1991.14	-22
1991.96	-36.5
1992.78	-24
1993.59	-31
1994.41	-24.5
1995.22	-31
1996.04	-28
1996.85	-24.5
1997.67	-35.9095
1998.48	-41.2508
1999.3	-31.2365
2000.11	-34.168
2000.93	-44.2869
2001.74	-37.1263
2002.56	-31.2928
2003.37	-37.2078
2004.18	-31.1642
2004.99	-19.7025
2005.81	-37.9898
2006.62	-30.5511
2007.43	-21.9806
2008.25	-19.5873
2009.06	-32.4679
2009.87	-34.178
2010.68	-33.8096
2011.49	-21.5
2012.3	-32.6929
2013.11	-30.7485
2013.92	-18.9098
2014.73	-39.3485
2015.54	-26.7846
2016.35	-30.3493
2017.16	-28.2698
2017.97	-33.7104
2018.78	-28.8357
2019.59	-29.2764
2020.4	-43.0898
2021.21	-30.6151
2022.02	-22.7627
2022.83	-27.1974
2023.63	-35.8139
2024.44	-17.8824
2025.25	-20.397
2026.06	-19.3085
2026.86	-23.8408
2027.67	-31.0107
2028.48	-32.6275
2029.28	-34.8031
2030.09	-17.539
2030.89	-25.1474
2031.7	-31.0053
2032.5	-39.156
2033.31	-32.776
2034.11	-19.5921
2034.92	-30.5053
2035.72	-32.7572
2036.53	-28.4681
2037.33	-30.9527
2038.14	-32.8435
2038.94	-30.2929
2039.74	-21.7202
2040.55	-24.6843
2041.35	-21.9165
2042.15	-29.4985
2042.95	-21.1047
2043.76	-29.4093
2044.56	-27.3292
2045.36	-25.7921
2046.16	-24.2094
2046.96	-27.1815
2047.76	-26.097
2048.56	-20.8565
2049.37	-21.9274
2050.17	-23.2733
2050.97	-24.1644
2051.77	-21.5803
2052.57	-23.0341
2053.36	-26.4696
2054.16	-26.352
2054.96	-25.5645
2055.76	-24.9813
2056.56	-23.3325
2057.36	-22.0092
2058.16	-20.7996
2058.96	-22.4743
2059.75	-22.7039
2060.55	-20.7122
2061.35	-22.6233
2062.14	-17.691
2062.94	-21.8531
2063.74	-20.4621
2064.53	-14.7868
2065.33	-21.9877
2066.13	-25.6781
2066.92	-23.2715
2067.72	-25.3626
2068.51	-22.4956
2069.31	-19.0933
2070.1	-18.1923
2070.9	-17.1412
2071.69	-20.1278
2072.49	-12.9392
2073.28	-8.39372
2074.07	-19.4098
2074.87	-22.5667
2075.66	-22.9443
2076.45	-28.6343
2077.25	-10.8401
2078.04	-21.7278
2078.83	-22.0539
2079.62	-26.1773
2080.41	-19.4756
2081.21	-12.94
2081.38	-11.5
2082.2	-4.5
2083.03	-13
2083.86	-27
2084.68	-8
2085.51	-20
2086.34	-10
2087.16	-9
2087.99	-27.5
2088.81	-24.5
2089.64	-16
2090.46	-13
2091.29	-16.5
2092.11	-6.5
2092.94	-24.5
2093.76	-32
2094.58	-14
2095.41	-15
2096.23	-22
2097.06	-23
2097.88	-11
2098.7	-17
2099.53	-12.5
2100.35	-26.5
2101.17	-26
2101.99	-23
2102.81	-12.5
2103.64	-8.5
2104.46	-5.5
2105.28	-22
2106.1	-29
2106.92	-13
2107.74	-16
2108.56	-40
2109.38	-11.5
2110.2	-21.5
2111.03	-23.5
2111.84	-8.5
2112.66	-20
2113.48	-17
2114.3	-11
2115.12	-22
2115.94	-23
2116.76	-7
2117.58	-27
2118.4	-18.5
2119.22	-26
2120.03	-23
2120.85	-16
2121.67	-11.5
2122.49	-11.5
2123.3	-15
2124.12	-22.5
2124.94	-18.5
2125.76	-5
2126.57	-18
2127.39	-23.5
2128.2	-20
2129.02	-20
2129.83	-15.5
2130.65	-19
2131.47	-15
2132.28	-28
2133.1	-17
2133.91	-23
2134.73	-16
2135.54	-27
2136.35	-17
2137.17	-13
2137.98	-17.5
2138.79	-11
2139.61	-10.5
2140.42	-9
2141.23	-21
2142.05	-30
2142.86	-17
2143.67	-28
2144.48	-12.5
2145.3	-20.5
2146.11	-16
2146.92	-27
2147.73	-16
2148.54	-11.5
2149.35	-18
2150.16	-22
2150.97	-12
2151.79	-26
2152.6	-11.5
2153.41	-12
2154.22	-21
2155.02	-12
2155.83	-27.5
2156.64	-22
2157.45	-5
2158.26	-15
2159.07	-16
2159.88	-9.5
2160.69	-18
2161.5	-16.5
2162.3	-19.5
2163.11	-10
2163.92	-27
2164.73	-47
2165.53	-24.5
2166.34	-3
2167.15	-26
2167.95	-21
2168.76	-18.5
2169.57	-12.5
2170.37	-26
2171.18	-11
2171.98	-21
2172.79	-22
2173.59	-19
2174.4	-16
2175.2	-5
2176.01	-24
2176.81	-25
2177.62	-24.5
2178.42	-18.5
2179.22	-22.5
2180.03	-28
2180.83	-23
2181.63	-20.5
2182.44	-28
2183.24	-19
2184.04	-17
2184.85	-28
2185.65	-23.5
2186.45	-30
2187.25	-27.5
2188.05	-25.5
2188.86	-13.5
2189.66	-22.5
2190.46	-29
2191.26	-27
2192.06	-23
2192.86	-20
2193.66	-34
2194.46	-25
2195.26	-33
2196.06	-45
2196.86	-25
2197.66	-27
2198.46	-26.5
2199.26	-35
2200.06	-44
2200.85	-22.5
2201.65	-17.5
2202.45	-17
2203.25	-26
2204.05	-31.5
2204.84	-27
2205.64	-29
2206.44	-17
2207.24	-45
2208.03	-30
2208.83	-38
2209.63	-27.5
2210.42	-30
2211.22	-24
2212.01	-39
2212.81	-33
2213.61	-26
2214.4	-35
2215.2	-24.5
2215.99	-26
2216.79	-43
2217.58	-27
2218.37	-23.5
2219.17	-20
2219.96	-33
2220.76	-22
2221.55	-28
2222.34	-23
2223.14	-36.5
2223.93	-33.5
2224.72	-29.5
2225.51	-30
2226.31	-41.5
2227.1	-34.5
2227.89	-24
2228.68	-31
2229.47	-29
2230.27	-32
2231.06	-23
2231.85	-35.5
2232.64	-21.5
2233.43	-41
2234.22	-37
2235.01	-36.5
2235.8	-25.5
2236.59	-22.5
2237.38	-32
2238.17	-24
2238.96	-24.5
2239.75	-25
2240.54	-33.5
2241.33	-41.5
2242.11	-14.5
2242.9	-51
2243.69	-39
2244.48	-31
2245.27	-42
2246.05	-31
2246.84	-25
2247.63	-33
2248.41	-23.5
2249.2	-33
2249.99	-29.5
2250.77	-17.5
2251.56	-37.5
2252.35	-45
2253.13	-25.5
2253.92	-30
2254.7	-38.5
2255.49	-23
2256.27	-29.5
2257.06	-28
2257.84	-39
2258.63	-26
2259.41	-27.5
2260.2	-43.5
2260.98	-35.5
2261.76	-26.5
2262.55	-29.5
2263.33	-30.5
2264.11	-36
2264.9	-41
2265.68	-34
2266.46	-33.5
2267.24	-28.5
2268.03	-29
2268.81	-33
2269.59	-32.5
2270.37	-27
2271.15	-30
2271.93	-30
2272.71	-34
2273.5	-42
2274.28	-37.5
2275.06	-30
2275.84	-27
2276.62	-35.5
2277.4	-41
2278.18	-34
2278.96	-27
2279.73	-30
2280.51	-39
2281.29	-18.5
2282.07	-36
2282.85	-30
2283.63	-35
2284.41	-21.5
2285.18	-36
2285.96	-38.5
2286.74	-38
2287.52	-29.5
2288.29	-46
2289.07	-36
2289.85	-22
2290.62	-35.5
2291.4	-36
2292.18	-29
2292.95	-20
2293.73	-31
2294.5	-37
2295.28	-35
2296.05	-27.5
2296.83	-30
2297.6	-25
2298.38	-18.5
2299.15	-31
2299.93	-39
2300.7	-33.5
2301.48	-23.5
2302.25	-27
2303.02	-23.5
2303.8	-41.5
2304.57	-26
2305.34	-27.5
2306.11	-37
2306.89	-29
2307.66	-33
2308.43	-48
2309.2	-30.5
2309.97	-28.5
2310.75	-33
2311.52	-33
2312.29	-31.5
2313.06	-37
2313.83	-23
2314.6	-41.5
2315.37	-24
2316.14	-32
2316.91	-33
2317.68	-23.5
2318.45	-38
2319.22	-32.5
2319.99	-24
2320.76	-30.5
2321.53	-36
2322.3	-29.5
2323.06	-39
2323.83	-20
2324.6	-37
2325.37	-26
2326.14	-34.5
2326.9	-24
2327.67	-28
2328.44	-33
2329.21	-36
2329.97	-28.5
2330.74	-39
2331.5	-29.5
2332.27	-37.5
2333.04	-25.5
2333.8	-45
2334.57	-33
2335.33	-26
2336.1	-26.5
2336.86	-38
2337.63	-28.5
2338.39	-37
2339.16	-35
2339.92	-33
2340.69	-26
2341.45	-34
2342.21	-32
2342.98	-24.5
2343.74	-23.5
2344.5	-39
2345.27	-32
2346.03	-39
2346.79	-24.5
2347.55	-27
2348.31	-34
2349.08	-31
2349.84	-29
2350.6	-37.5
2351.36	-29.5
2352.12	-39.5
2352.88	-30
2353.64	-27
2354.41	-32.5
2355.17	-40
2355.93	-25
2356.69	-25
2357.45	-34
2358.21	-40
2358.96	-28.5
2359.72	-38
2360.48	-32.5
2361.24	-18
2362	-33
2362.76	-36.5
2363.52	-46.5
2364.28	-38
2365.03	-37.5
2365.79	-38
2366.55	-39
2367.31	-34
2368.06	-27.5
2368.82	-43
2369.58	-35
2370.33	-32.5
2371.09	-32
2371.85	-28
2372.6	-40
2373.36	-44
2374.11	-30
2374.87	-45
2375.62	-36.5
2376.38	-29.5
2377.13	-24.5
2377.89	-61
2378.64	-42
2379.4	-35
2380.15	-36
2380.9	-23
2381.66	-28
2382.41	-35
2383.16	-52
2383.92	-33.5
2384.67	-28.5
2385.42	-41
2386.18	-47
2386.93	-35
2387.68	-28
2388.43	-25.5
2389.18	-37
2389.94	-23
2390.69	-19.5
2391.44	-36.5
2392.19	-30
2392.94	-37
2393.69	-26
2394.44	-30.5
2395.19	-25.5
2395.94	-28
2396.69	-23
2397.44	-25
2398.19	-22.5
2398.94	-28
2399.69	-50
2400.44	-30.5
2401.19	-27.5
2401.93	-40
2402.68	-35
2403.43	-36.5
2404.18	-43.5
2404.93	-36
2405.67	-28.5
2406.42	-28
2407.17	-56
2407.92	-27
2408.66	-39.5
2409.41	-25.5
2410.16	-43
2410.9	-36
2411.65	-14
2412.39	-40
2413.14	-41
2413.89	-25
2414.63	-31.5
2415.38	-19
2416.12	-46
2416.86	-29
2417.61	-32
2418.35	-27
2419.1	-43
2419.84	-36
2420.59	-27
2421.33	-35.5
2422.07	-26.5
2422.82	-18.5
2423.56	-34
2424.3	-49
2425.04	-28
2425.79	-33.5
2426.53	-42
2427.27	-59
2428.01	-39
2428.75	-33.5
2429.5	-33
2430.24	-29.5
2430.98	-27.5
2431.72	-34
2432.46	-53
2433.2	-45.5
2433.94	-26
2434.68	-40
2435.42	-32.5
2436.16	-45.5
2436.9	-48
2437.64	-35
2438.38	-34.5
2439.12	-24
2439.86	-32
2440.59	-38
2441.33	-29.5
2442.07	-18
2442.81	-50
2443.55	-35
2444.28	-25
2445.02	-28
2445.76	-34
2446.5	-35.5
2447.23	-27
2447.97	-47
2448.71	-39
2449.44	-39
2450.18	-28
2450.91	-38
2451.65	-32
2452.39	-30
2453.12	-43
2453.86	-39.5
2454.59	-32.5
2455.33	-30
2456.06	-28.5
2456.79	-59
2457.53	-28
2458.26	-25
2459	-45
2459.73	-30.5
2460.46	-30.5
2461.2	-45
2461.93	-32
2462.66	-36
2463.4	-25
2464.13	-21.5
2464.86	-59
2465.59	-31
2466.32	-47
2467.06	-34
2467.79	-40
2468.52	-39
2469.25	-40
2469.98	-36.5
2470.71	-37.5
2471.44	-22.5
2472.17	-38
2472.9	-33
2473.63	-39.5
2474.36	-34
2475.09	-39
2475.82	-33
2476.55	-34
2477.28	-41
2478.01	-31.5
2478.74	-38
2479.47	-42
2480.19	-45
2480.92	-35
2481.65	-29
2482.38	-30
2483.11	-44
2483.83	-26.5
2484.56	-27.5
2485.29	-35
2486.01	-40.5
2486.74	-22.5
2487.47	-23.5
2488.19	-37
2488.92	-42
2489.65	-33.5
2490.37	-29.5
2491.1	-50
2491.82	-31
2492.55	-24.5
2493.27	-28
2494	-51
2494.72	-37.5
2495.45	-23
2496.17	-47
2496.89	-38
2497.62	-36
2498.34	-21
2499.06	-40.5
2499.79	-41
2500.51	-26.5
2501.23	-38
2501.96	-39
2502.68	-33.5
2503.4	-33
2504.12	-51
2504.84	-41
2505.57	-25.5
2506.29	-33.5
2507.01	-37
2507.73	-28
2508.45	-37
2509.17	-37.5
2509.89	-31
2510.61	-27
2511.33	-29.5
2512.05	-41
2512.77	-39.5
2513.49	-25.5
2514.21	-32
2514.93	-53
2515.65	-22
2516.37	-33
2517.09	-42.5
2517.81	-38
2518.52	-36.5
2519.24	-36
2519.96	-45
2520.68	-34.5
2521.4	-35.5
2522.11	-28
2522.83	-41
2523.55	-24.5
2524.26	-30.5
2524.98	-38
2525.7	-36.5
2526.41	-15
2527.13	-23.5
2527.84	-43
2528.56	-31.5
2529.28	-32
2529.99	-28
2530.71	-34
2531.42	-28
2532.14	-39
2532.85	-45
2533.56	-43
2534.28	-25.5
2534.99	-22
2535.71	-32.5
2536.42	-33
2537.13	-37.5
2537.85	-36.5
2538.56	-37
2539.27	-20
2539.98	-35
2540.7	-39.5
2541.41	-37.5
2542.12	-21
2542.83	-37
2543.54	-46
2544.26	-34.5
2544.97	-28
2545.68	-38
2546.39	-43
2547.1	-26.5
2547.81	-31.5
2548.52	-36.5
2549.23	-54
2549.94	-32
2550.65	-30
2551.36	-32.5
2552.07	-40.5
2552.78	-30.5
2553.49	-27.5
2554.2	-36
2554.91	-24
2555.61	-21.5
2556.32	-49
2557.03	-42.5
2557.74	-29.5
2558.45	-23.5
2559.15	-29
2559.86	-31
2560.57	-26.5
2561.27	-24
2561.98	-34.5
2562.69	-17
2563.39	-29
2564.1	-46
2564.81	-32.5
2565.51	-27
2566.22	-32
2566.92	-43.5
2567.63	-31
2568.33	-27.5
2569.04	-44
2569.74	-43.5
2570.45	-24.5
2571.15	-34
2571.86	-44
2572.56	-35
2573.26	-29
2573.97	-34.5
2574.67	-32
2575.37	-36
2576.08	-26
2576.78	-73
2577.48	-41
2578.19	-19
2578.89	-25
2579.59	-40.5
2580.29	-25
2580.99	-38.5
2581.69	-40
2582.4	-37
2583.1	-33
2583.8	-30
2584.5	-36.5
2585.2	-29
2585.9	-27
2586.6	-25
2587.3	-31.5
2588	-35.5
2588.7	-15.5
2589.4	-24
2590.1	-28
2590.8	-32
2591.5	-15
2592.19	-49
2592.89	-32.5
2593.59	-34
2594.29	-29
2594.99	-35
2595.68	-37.5
2596.38	-28.5
2597.08	-33
2597.78	-35
2598.47	-36
2599.17	-32
2599.87	-44
2600.56	-27
2601.26	-29
2601.96	-30
2602.65	-43
2603.35	-21.5
2604.04	-44.5
2604.74	-34
2605.43	-35
2606.13	-31.5
2606.82	-31.5
2607.52	-36
2608.21	-32.5
2608.91	-35
2609.6	-41
2610.29	-45.5
2610.99	-34
2611.68	-30
2612.37	-40
2613.07	-43
2613.76	-31
2614.45	-37
2615.15	-30
2615.84	-40.5
2616.53	-31
2617.22	-47
2617.91	-29
2618.6	-31.5
2619.3	-27
2619.99	-30
2620.68	-39.5
2621.37	-33
2622.06	-40.5
2622.75	-32.5
2623.44	-25
2624.13	-28.5
2624.82	-48
2625.51	-40
2626.2	-35
2626.89	-51
2627.58	-30.5
2628.27	-24
2628.96	-39
2629.64	-32
2630.33	-32.5
2631.02	-58
2631.71	-28.5
2632.4	-38
2633.08	-32
2633.77	-24.5
2634.46	-25
2635.15	-43
2635.83	-31
2636.52	-22.5
2637.21	-29
2637.89	-35
2638.58	-28.5
2639.26	-26
2639.95	-29
2640.64	-43
2641.32	-38
2642.01	-26
2642.69	-32
2643.38	-35
2644.06	-45
2644.75	-32
2645.43	-28.5
2646.11	-29
2646.8	-25.5
2647.48	-37
2648.16	-33
2648.85	-36.5
2649.53	-30
2650.21	-50
2650.9	-34.5
2651.58	-46
2652.26	-26
2652.94	-37.5
2653.63	-28
2654.31	-41
2654.99	-35
2655.67	-36.5
2656.35	-39
2657.03	-26
2657.71	-60
2658.39	-40
2659.08	-34
2659.76	-30
2660.44	-30
2661.12	-23.5
2661.8	-52
2662.48	-28
2663.15	-37
2663.83	-30.5
2664.51	-30
2665.19	-36
2665.87	-26.5
2666.55	-29
2667.23	-22
2667.91	-42.5
2668.58	-28
2669.26	-29.5
2669.94	-47
2670.62	-49
2671.29	-32.5
2671.97	-44
2672.65	-37
2673.32	-26
2674	-33
2674.68	-41
2675.35	-27.5
2676.03	-40
2676.7	-26.5
2677.38	-41
2678.06	-23.5
2678.73	-23
2679.41	-32
2680.08	-24.5
2680.75	-35
2681.43	-42
2682.1	-32
2682.78	-29.5
2683.45	-15.5
2684.12	-50
2684.8	-39
2685.47	-29
2686.14	-38.5
2686.82	-34
2687.49	-21.5
2688.16	-35.5
2688.83	-29.5
2689.51	-16.5
2690.18	-44.5
2690.85	-26
2691.52	-34
2692.19	-34.5
2692.86	-25
2693.54	-27.46
2694.21	-31.5703
2694.88	-28.5947
2695.55	-33.8523
2696.22	-33.856
2696.89	-62.8922
2697.56	-32.3013
2698.23	-26.7729
2698.9	-25.2311
2699.57	-40.3355
2700.24	-36.2264
2700.91	-35.1445
2701.57	-39.8801
2702.24	-29.3306
2702.91	-32.6019
2703.58	-38.4633
2704.25	-15.3525
2704.92	-28.3306
2705.58	-29.3198
2706.25	-21.4415
2706.92	-32.2968
2707.58	-31.8683
2708.25	-38.2105
2708.92	-33.21
2709.59	-26.0791
2710.25	-45.3136
2710.92	-37.4428
2711.58	-29.923
2712.25	-20.6983
2712.92	-23.7818
2713.58	-29.2615
2714.25	-22.7331
2714.91	-29.8164
2715.58	-31.4212
2716.24	-31.1322
2716.91	-28.7949
2717.57	-37.2121
2718.23	-43.0461
2718.9	-28.1066
2719.56	-29.5302
2720.23	-33.0766
2720.89	-25.2964
2721.55	-26.6583
2722.22	-23.3584
2722.88	-35.1827
2723.54	-20.2303
2724.2	-22.8694
2724.87	-24.9949
2725.53	-34.884
2726.19	-31.1289
2726.85	-20.6869
2727.51	-20.6685
2728.18	-24.8674
2728.84	-28.7343
2729.5	-18.047
2730.16	-18.7954
2730.82	-35.8488
2731.48	-27.5637
2732.14	-23.6531
2732.8	-40.6354
2733.46	-29.3072
2734.12	-30.1326
2734.78	-21.3775
2735.44	-29.6855
2736.1	-42.0937
2736.76	-24.0818
2737.42	-19.8915
2738.07	-37.9008
2738.73	-31.0422
2739.39	-21.8844
2740.05	-28.1204
2740.71	-34.0429
2741.37	-26.4232
2742.02	-19.6957
2742.68	-21.0072
2743.34	-24.7242
2743.99	-28.2281
2744.65	-23.4006
2745.31	-23.7843
2745.96	-32.7688
2746.62	-23.3896
2747.28	-23.7576
2747.93	-26.5437
2748.59	-28.6122
2749.24	-15.0198
2749.9	-7.8476
2750.55	-10.2699
2751.21	-21.6587
2751.86	-22.1988
2752.52	-11.8227
2753.17	-19.2958
2753.83	-23.8941
2754.48	-24.3248
2755.14	-16.0436
2755.79	-22.7374
2756.44	-22.0517
2757.1	-10.8506
2757.75	-15.7013
2758.4	-23.1042
2759.05	-17.7408
2759.71	-19.2051
2760.36	-24.0642
2761.01	-19.0902
2761.66	-23.3479
2762.32	0.303215
2762.97	-22.2876
2763.63	-29
2764.32	-27
2765.01	-8.5
2765.69	-7.5
2766.38	-19.5
2767.07	-3
2767.75	-8.5
2768.44	-23
2769.12	-25.5
2769.81	-19
2770.49	-10
2771.18	-40.5
2771.87	-10
2772.55	-2
2773.24	-15
2773.92	-19
2774.6	-13.5
2775.29	-1.5
2775.97	-25
2776.66	-14.5
2777.34	4.5
2778.03	-18
2778.71	-29.5
2779.39	-7.5
2780.08	-10
2780.76	-9.5
2781.44	-17.5
2782.12	-3
2782.81	-16
2783.49	-26
2784.17	-12.5
2784.85	-8
2785.54	-26
2786.22	-29.5
2786.9	-17
2787.58	3.5
2788.26	-26
2788.94	-15.5
2789.63	-10
2790.31	-10.5
2790.99	-39
2791.67	-24
2792.35	-7
2793.03	-15
2793.71	-29
2794.39	-24
2795.07	-14.5
2795.75	-29
2796.43	-40.5
2797.11	-13
2797.79	-28.5
2798.46	-21.5
2799.14	-15.5
2799.82	4
2800.5	-21
2801.18	-25
2801.86	-15
2802.54	-20
2803.21	-22
2803.89	-20.5
2804.57	-9.5
2805.25	-16
2805.92	-31
2806.6	-14
2807.28	-1
2807.95	-25.5
2808.63	-35.5
2809.31	-0.5
2809.98	-20
2810.66	-17
2811.34	-29
2812.01	-14
2812.69	-18
2813.36	-28.5
2814.04	-15
2814.71	-12
2815.39	-27
2816.06	-26
2816.74	-28
2817.41	-18
2818.09	-39
2818.76	-20.5
2819.44	-6
2820.11	-26
2820.78	-35.5
2821.46	-17.5
2822.13	-8
2822.8	-25.5
2823.48	-45.5
2824.15	-15
2824.82	-9
2825.49	-29
2826.17	-12.5
2826.84	-4
2827.51	-22
2828.18	-26.5
2828.86	-14
2829.53	-13
2830.2	-19
2830.87	-21.5
2831.54	-19
2832.21	-18.5
2832.88	-25
2833.55	-18.5
2834.22	-12
2834.9	-28
2835.56	-22
2836.23	-11.5
2836.91	-15
2837.57	-31
2838.24	-30
2838.91	-13
2839.58	-16.5
2840.25	-8.5
2840.92	-16.5
2841.59	-14
2842.26	-12.5
2842.93	-19.5
2843.6	-26
2844.26	-6.5
2844.93	-22
2845.6	-14.5
2846.27	-11
2846.93	-31
2847.6	-22
2848.27	-4.5
2848.94	-11
2849.6	-16
2850.27	-23
2850.94	-2
2851.6	-3.5
2852.27	-17.5
2852.94	-14
2853.6	-15
2854.27	-10
2854.93	-21.5
2855.6	-14
2856.26	-6
2856.93	-14
2857.59	-20
2858.26	-7
2858.92	-2.5
2859.59	-27
2860.25	-9.5
2860.92	-16
2861.58	-27
2862.24	-18.5
2862.91	-5.5
2863.57	-18
2864.23	-12
2864.9	-17.5
2865.56	-12
2866.22	-14.5
2866.89	-22.5
2867.55	-17
2868.21	-20
2868.87	-25
2869.54	-34
2870.2	-8.5
2870.86	-12.5
2871.52	-10
2872.18	-21
2872.84	-29
2873.51	-15
2874.17	-23
2874.83	-26
2875.49	-7
2876.15	-16.5
2876.81	-22.5
2877.47	-4
2878.13	-20
2878.79	-29
2879.45	-20
2880.11	-11.5
2880.77	-8.5
2881.43	-22.5
2882.09	-7.5
2882.75	-26
2883.4	-17.5
2884.06	-28.5
2884.72	-7.5
2885.38	-46
2886.04	-33
2886.7	-22
2887.35	-16.5
2888.01	-12
2888.67	-18
2889.33	-25
2889.98	-31
2890.64	-33
2891.3	-25.5
2891.95	-15.5
2892.61	-26
2893.27	-30
2893.92	-14
2894.58	-16
2895.23	-14
2895.89	-17.5
2896.55	-18
2897.2	-37
2897.86	-29
2898.51	-27
2899.17	-14
2899.82	-22
2900.48	-36
2901.13	-17.5
2901.79	-24.5
2902.44	-24.5
2903.09	-37.5
2903.75	-19.5
2904.4	-26
2905.05	-19
2905.71	-22
2906.36	-8
2907.01	-13.5
2907.67	-17
2908.32	-12.5
2908.97	-14.5
2909.63	-18
2910.28	-17.5
2910.93	-19
2911.58	-15
2912.23	-25
2912.88	-22
2913.54	-9
2914.19	-39
2914.84	-27
2915.49	-16.5
2916.14	-20.5
2916.79	-26
2917.44	-27.5
2918.09	-8
2918.74	-31
2919.39	-34.5
2920.04	-15.5
2920.69	-33
2921.34	-44
2921.99	-26.5
2922.64	-29
2923.29	-24
2923.94	-23
2924.59	-20
2925.23	-20
2925.88	-48
2926.53	-36
2927.18	-18
2927.83	-18.5
2928.48	-34
2929.12	-34
2929.77	-22
2930.42	-20.5
2931.07	-27.5
2931.71	-25
2932.36	-13.5
2933.01	-13
2933.65	-29.5
2934.3	-20
2934.95	-7
2935.59	-21.5
2936.24	-30
2936.88	-20.5
2937.53	-21
2938.17	-40.5
2938.82	-32.5
2939.46	-16
2940.11	-32.5
2940.75	-29.5
2941.4	-33.5
2942.04	-43
2942.69	-25
2943.33	-38.5
2943.98	-17
2944.62	-13.5
2945.26	-27.5
2945.91	-41
2946.55	-21.5
2947.19	-41
2947.84	-31
2948.48	-30
2949.12	-22
2949.76	-51
2950.41	-25.5
2951.05	-25.5
2951.69	-28
2952.33	-36.5
2952.98	-28.5
2953.62	-23
2954.26	-55
2954.9	-34
2955.54	-23
2956.18	-22
2956.82	-51
2957.46	-24
2958.1	-11
2958.74	-29
2959.38	-25
2960.02	-29
2960.66	-25
2961.3	-28
2961.94	-33
2962.58	-21.5
2963.22	-42.5
2963.86	-24
2964.5	-20.5
2965.14	-29
2965.78	-31
2966.42	-37.5
2967.05	-26
2967.69	-32
2968.33	-47.5
2968.97	-43.5
2969.61	-21
2970.24	-32
2970.88	-44
2971.52	-39
2972.15	-22.5
2972.79	-28
2973.43	-38.5
2974.06	-17
2974.7	-24
2975.34	-36
2975.97	-49
2976.61	-19.5
2977.24	-51
2977.88	-38
2978.52	-38
2979.15	-15
2979.79	-31.5
2980.42	-36
2981.06	-23
2981.69	-31
2982.32	-51
2982.96	-31.5
2983.59	-32.5
2984.23	-26
2984.86	-42
2985.49	-21
2986.13	-39
2986.76	-48
2987.39	-28
2988.03	-44.5
2988.66	-30
2989.29	-37
2989.93	-37
2990.56	-31.5
2991.19	-38
2991.82	-25
2992.45	-32.5
2993.09	-19.5
2993.72	-29
2994.35	-35
2994.98	-20
2995.61	-61
2996.24	-46
2996.87	-33.5
2997.5	-22
2998.14	-36
2998.77	-41
2999.4	-39.5
3000.03	-22
3000.66	-49
3001.29	-28.5
3001.91	-25
3002.54	-31
3003.17	-37
3003.8	-33
3004.43	-29.5
3005.06	-16
3005.69	-35
3006.32	-26.5
3006.95	-22.5
3007.57	-41
3008.2	-34.5
3008.83	-20
3009.46	-21
3010.08	-26.5
3010.71	-32.5
3011.34	-23.5
3011.97	-47
3012.59	-41.5
3013.22	-22.5
3013.85	-20
3014.47	-47
3015.1	-26.5
3015.72	-21
3016.35	-41
3016.98	-45.5
3017.6	-29
3018.23	-28
3018.85	-34
3019.48	-35
3020.1	-42
3020.73	-31
3021.35	-33
3021.98	-33
3022.6	-27
3023.23	-41
3023.85	-52
3024.47	-33.5
3025.1	-22
3025.72	-26.5
3026.34	-55
3026.97	-21
3027.59	-33.5
3028.21	-35.5
3028.84	-34
3029.46	-26
3030.08	-33
3030.7	-36
3031.32	-20
3031.95	-20
3032.57	-42.5
3033.19	-45.5
3033.81	-27.5
3034.43	-14
3035.05	-44
3035.68	-26.5
3036.3	-30
3036.92	-44
3037.54	-33
3038.16	-19
3038.78	-31.5
3039.4	-41
3040.02	-35.5
3040.64	-31.5
3041.26	-38
3041.88	-44
3042.5	-31
3043.12	-23
3043.73	-48
3044.35	-59
3044.97	-27.5
3045.59	-17.5
3046.21	-43
3046.83	-39.5
3047.44	-27
3048.06	-30.5
3048.68	-40
3049.3	-35.5
3049.92	-24
3050.53	-38.5
3051.15	-37
3051.77	-28
3052.38	-26
3053	-37
3053.62	-29.5
3054.23	-25
3054.85	-42
3055.46	-51
3056.08	-10
3056.7	-29.5
3057.31	-39.5
3057.93	-40
3058.54	-31
3059.16	-33
3059.77	-53
3060.39	-29
3061	-25
3061.61	-32
3062.23	-39
3062.84	-15
3063.46	-35
3064.07	-37
3064.68	-40
3065.3	-20
3065.91	-24.5
3066.52	-37
3067.14	-37
3067.75	-38
3068.36	-57
3068.98	-44.5
3069.59	-28
3070.2	-23.5
3070.81	-37
3071.42	-49
3072.04	-31.5
3072.65	-31
3073.26	-38
3073.87	-32
3074.48	-27
3075.09	-40
3075.7	-51.5
3076.31	-35
3076.92	-29.5
3077.53	-48
3078.14	-38
3078.75	-18
3079.36	-38
3079.97	-38.5
3080.58	-30.5
3081.19	-13.5
3081.8	-50
3082.41	-43.5
3083.02	-22
3083.63	-33.5
3084.24	-40
3084.84	-48.5
3085.45	-15
3086.06	-31
3086.67	-53
3087.28	-25.5
3087.88	-20
3088.49	-56
3089.1	-41.5
3089.71	-20
3090.31	-28
3090.92	-39
3091.53	-46
3092.13	-23
3092.74	-38
3093.34	-43
3093.95	-37
3094.56	-17
3095.16	-42
3095.77	-44.5
3096.37	-26.5
3096.98	-38.5
3097.58	-46.5
3098.19	-38
3098.79	-9.5
3099.4	-34
3100	-41
3100.61	-42
3101.21	-25
3101.81	-48
3102.42	-45
3103.02	-3
3103.63	-18
3104.23	-48
3104.83	-25.5
3105.43	-30
3106.04	-34.5
3106.64	-43
3107.24	-22
3107.85	-26
3108.45	-41.5
3109.05	-32
3109.65	-28
3110.25	-42
3110.86	-42
3111.46	-35
3112.06	-33
3112.66	-40
3113.26	-35
3113.86	-35.5
3114.46	-29.5
3115.06	-44
3115.66	-47.5
3116.26	-13
3116.86	-48
3117.46	-45.5
3118.06	-43
3118.66	-29
3119.26	-39
3119.86	-42
3120.46	-31.5
3121.06	-23
3121.66	-44
3122.26	-35
3122.85	-23
3123.45	-32
3124.05	-49.5
3124.65	-28.5
3125.25	-33
3125.84	-32
3126.44	-33
3127.04	-22
3127.64	-45
3128.23	-47
3128.83	-31.5
3129.43	-18.5
3130.02	-34.5
3130.62	-51
3131.22	-30
3131.81	-29.5
3132.41	-35.5
3133	-32.5
3133.6	-23
3134.19	-27
3134.79	-32
3135.39	-39
3135.98	-24.5
3136.58	-33
3137.17	-44
3137.76	-24
3138.36	-40
3138.95	-53
3139.55	-35.5
3140.14	-21
3140.73	-25
3141.33	-48
3141.92	-25
3142.51	-12
3143.11	-40
3143.7	-52.5
3144.29	-25.5
3144.89	-30.5
3145.48	-36
3146.07	-31
3146.66	-26
3147.26	-40
3147.85	-52
3148.44	-30
3149.03	-18.5
3149.62	-34.5
3150.21	-42.5
3150.8	-40
3151.39	-24
3151.99	-45.5
3152.58	-37.5
3153.17	-18.5
3153.76	-40
3154.35	-45
3154.94	-42.5
3155.53	-33
3156.12	-33.5
3156.71	-40
3157.29	-18
3157.88	-29.5
3158.47	-33
3159.06	-32.5
3159.65	-29
3160.24	-34
3160.83	-38
3161.42	-26.5
3162	-28.5
3162.59	-32
3163.18	-43
3163.77	-26
3164.35	-33
3164.94	-39
3165.53	-26
3166.12	-26
3166.7	-41
3167.29	-34.5
3167.88	-35
3168.46	-21.5
3169.05	-49
3169.64	-38.5
3170.22	-26
3170.81	-36
3171.39	-38
3171.98	-40
3172.56	-33
3173.15	-37
3173.73	-46
3174.32	-25
3174.9	-17.5
3175.49	-41
3176.07	-43.5
3176.65	-49
3177.24	-25.5
3177.82	-47
3178.41	-26
3178.99	-27
3179.57	-35
3180.16	-34
3180.74	-27.5
3181.32	-32
3181.91	-35.5
3182.49	-33.5
3183.07	-35
3183.65	-27
3184.23	-42
3184.82	-40
3185.4	-21
3185.98	-40
3186.56	-37
3187.14	-27
3187.72	-28.5
3188.3	-35
3188.89	-34.5
3189.47	-38
3190.05	-23.5
3190.63	-35
3191.21	-25.5
3191.79	-26
3192.37	-34
3192.95	-33
3193.53	-28
3194.11	-25
3194.69	-47
3195.26	-35.5
3195.84	-24.5
3196.42	-38.5
3197	-41
3197.58	-26.5
3198.16	-24
3198.74	-51
3199.31	-33.5
3199.89	-31
