100.582	377
101.867	362
103.152	355
104.437	352
105.721	346
107.004	314
108.287	315
109.571	315
110.853	316
112.136	335
113.418	318.5
114.7	311
115.981	309
117.262	296
118.543	274
119.823	317
121.103	286.5
122.383	273
123.663	256
124.942	267
126.221	320.5
127.499	272
128.777	281
130.056	263.5
131.333	255
132.61	259
133.887	269
135.163	263.5
136.439	248
137.715	257
138.992	250.5
140.267	248.5
141.541	218
142.816	244
144.09	235
145.364	217
146.637	212
147.911	226.5
149.184	215
150.457	203
151.729	179
153.001	204.5
154.273	199
155.544	204.5
156.815	203.5
158.086	197
159.356	164
160.626	181
161.896	184.5
163.165	166
164.434	161.5
165.703	148
166.971	190
168.24	173
169.507	149.5
170.774	154.5
172.042	163.5
173.309	145
174.575	121
175.841	162
177.107	135
178.373	137.5
179.637	136.5
180.902	140
182.167	130.5
183.431	128
184.695	133
185.958	137
187.222	105
188.485	123
189.747	131
191.009	111.5
192.272	106
193.534	118
194.795	147
196.055	119.5
197.316	123
198.577	146
199.837	117.5
201.096	109.5
202.356	120
203.615	137
204.873	115
206.132	96
207.39	126
208.648	121.5
209.905	102
211.162	106.5
212.419	128
213.675	113
214.932	100
216.187	115
217.443	128
218.697	102
219.953	90.5
221.207	118
222.462	126.5
223.715	100
224.969	110.5
226.222	121.5
227.475	114
228.727	88
229.98	88
231.232	115
232.483	94.5
233.734	103
234.986	120
236.236	111.5
237.486	96.5
238.737	106
239.986	113.5
241.235	128
242.484	105.5
243.733	124
244.981	148.5
246.229	134
247.477	176
248.725	192.5
249.971	193
251.219	167
252.465	164.5
253.711	147.5
254.957	124
256.203	93
257.448	118
258.693	117
259.937	120.5
261.181	96
262.425	119
263.669	108.5
264.912	87.5
266.155	89
267.398	111
268.64	75
269.881	91.5
271.123	98.5
272.364	89
273.605	75
274.846	81
276.086	89
277.326	88.5
278.566	68.5
279.806	88
281.045	107
282.283	78
283.522	67.5
284.76	80
285.998	78
287.235	69
288.473	67
289.71	100
290.946	75
292.182	74
293.418	68
294.654	75
295.888	65.5
297.123	59
298.358	79
299.592	69
300.826	56.5
302.06	66
303.293	80.5
304.526	59.5
305.759	71
306.991	67
308.223	84.5
309.455	61
310.687	46
311.917	59
313.148	63
314.379	41
315.609	52
316.839	62
318.068	63.5
319.297	50
320.526	65
321.754	66.5
322.982	45
324.21	30
325.438	61
326.665	59.5
327.892	41
329.118	67
330.345	65
331.571	66
332.797	41
334.022	58.5
335.247	72.5
336.471	47
337.696	26
338.92	66
340.144	55
341.367	40.5
342.591	48
343.813	61
345.036	41.5
346.257	39
347.48	63
348.701	58
349.922	44
351.143	48
352.363	55
353.583	52
354.803	34.5
356.023	53
357.243	52
358.462	41
359.68	45
360.899	55
362.117	66
363.334	43.5
364.551	38
365.769	54.5
366.986	51
368.202	54
369.418	48
370.633	51
371.849	34
373.065	35
374.279	47
375.494	60.5
376.708	39
377.921	42
379.136	50
380.349	46.5
381.562	28
382.774	33
383.987	50.5
385.198	37
386.41	18
387.621	51
388.832	35
390.043	30
391.253	28
392.463	43
393.674	18.5
394.883	17
396.092	51
397.301	54
398.509	29
399.717	15
400.925	51
402.133	33.5
403.34	21
404.547	34
405.753	55.5
406.96	32
408.165	19
409.371	20
410.576	33
411.781	26.5
412.986	26
414.191	30
415.394	40.5
416.598	15
417.802	33
419.005	43
420.208	23.5
421.41	17
422.613	25
423.815	30
425.016	28
426.217	34
427.418	30.5
428.619	32.5
429.818	9
431.019	25
432.218	44
433.418	28
434.617	18
435.815	30
437.014	43.5
438.212	11.5
439.41	31
440.607	40
441.805	23
443.001	19
444.198	16
445.394	36
446.59	21
447.785	7
448.98	25
450.175	24
451.37	11
452.564	22
453.758	40.5
454.952	15.5
456.145	21
457.339	15
458.531	21.5
459.724	16
460.916	15
462.107	29
463.299	23.5
464.49	3
465.681	4
466.871	25
468.062	22
469.252	16
470.441	19
471.631	34
472.819	17
474.008	3.5
475.196	32
476.385	34.5
477.572	7
478.76	10
479.946	22
481.133	21.5
482.32	7
483.506	21
484.692	24.5
485.877	11
487.063	-1
488.247	28.5
489.432	23
490.616	9
491.8	23
492.984	21
494.167	15
495.35	23.5
496.533	17
497.715	21
498.897	13.5
500.079	-8
501.26	25
502.441	20
503.622	16
504.803	21
505.983	32
507.163	16.5
508.342	15.5
509.522	4
510.701	15.5
511.88	9.5
513.058	1
514.236	25
515.413	17
516.591	7
517.768	13
518.945	13.5
520.121	9.5
521.297	2
522.473	8
523.648	20
524.823	10.5
525.998	-2
527.173	23
528.348	17.5
529.522	14
530.694	24
531.868	30.5
533.041	7
534.214	3
535.386	25
536.558	12.5
537.731	18
538.902	2
540.073	17
541.244	14
542.414	-7
543.585	15
544.754	15
545.924	14.5
547.094	4
548.262	6
549.431	12
550.6	-11.5
551.767	-10
552.935	14
554.103	4
555.27	12
556.436	7
557.603	19
558.769	-4
559.935	-8
561.1	17
562.266	9.5
563.431	-6.5
564.595	5.5
565.759	16
566.924	1
568.087	-8
569.25	-8
570.414	12
571.576	10
572.739	8
573.901	12
575.062	14
576.224	0.5
577.385	10
578.546	11.5
579.707	2.5
580.867	-9
582.028	21.5
583.187	14.5
584.347	-7.5
585.505	25
586.664	13.5
587.822	2
588.98	-8
590.138	7.5
591.296	23
592.453	7
593.61	-5
594.767	26
595.922	2
597.079	-3
598.234	3
599.39	17
600.544	7.5
601.699	-2
602.854	13.5
604.008	21
605.161	7
606.315	6.5
607.468	22
608.621	15
609.774	-7
610.926	9
612.078	5
613.229	5
614.381	14.5
615.532	4
616.682	10
617.833	-9
618.983	-16
620.133	12
621.282	7
622.431	-13.5
623.58	15
624.729	-6
625.877	8
627.025	-3.5
628.172	-2
629.32	1
630.467	-6.5
631.614	0
632.76	-1
633.906	1
635.052	-1
636.197	-5
637.343	-4
638.488	12
639.632	-9
640.776	5.5
641.92	1
643.064	-8
644.207	-4
645.35	3
646.493	9.5
647.635	0.5
648.777	14
649.919	-2
651.06	-13.5
652.202	-6.5
653.342	-5
654.483	2
655.624	-14
656.764	-7
657.903	12.5
659.043	0.5
660.181	-5
661.32	10
662.459	8
663.596	-3
664.735	1
665.872	-2.5
667.009	0.5
668.146	-19
669.282	-18
670.419	6.5
671.555	-4
672.69	-18
673.826	10
674.96	6
676.096	-4.5
677.23	-12
678.364	-3
679.498	11
680.631	3
681.765	1
682.897	8.5
684.03	0.5
685.163	-20.5
686.294	-3
687.426	-6.5
688.557	5
689.689	1
690.819	-6
691.949	-1
693.079	-8
694.21	-0.5
695.339	8.5
696.468	-4.5
697.597	-10.5
698.725	8
699.854	6.5
700.982	7.5
702.11	4.5
703.237	17
704.364	5.5
705.491	5
706.617	11
707.744	9
708.87	6
709.995	-2
711.12	29
712.245	18
713.37	2
714.495	9
715.618	14
716.742	7
717.865	12
718.989	15
720.112	18.5
721.234	14
722.356	4
723.478	25
724.6	8
725.721	3
726.842	7.5
727.962	14
729.083	-5.5
730.203	-14
731.323	18.5
732.442	19.5
733.562	6.5
734.681	-1
735.799	17
736.917	2.5
738.036	4.5
739.153	-3
740.27	9
741.387	3.5
742.505	-2
743.62	-1
744.736	15.5
745.853	0.5
746.968	-18
748.083	16.5
749.199	1.5
750.313	5.5
751.427	-6
752.541	9.5
753.655	4
754.768	3.5
755.882	8
756.994	6
758.107	-9
759.219	7
760.331	11
761.443	1
762.554	-18
763.665	3
764.776	5
765.885	-11
766.996	-4
768.106	7
769.215	10
770.324	2.5
771.434	10
772.542	3
773.65	-9
774.758	4.5
775.865	7.5
776.973	9
778.081	-3
779.187	-11
780.293	-7
781.399	6.5
782.506	4
783.611	-8
784.716	-4
785.821	-15
786.926	-5
788.03	2
789.134	2
790.238	-8
791.341	-12
792.444	4
793.547	1
794.65	-1
795.752	-2
796.854	18.5
797.956	-12
799.057	6
800.158	17
801.259	8
802.359	-1
803.459	-2
804.559	5
805.659	11.5
806.758	-8.5
807.857	1
808.955	7.5
810.053	-1.5
811.152	-1
812.25	17
813.347	6.5
814.444	3
815.541	-3
816.638	23
817.733	11
818.83	0
819.925	17.5
821.02	22
822.115	12
823.21	13
824.305	20
825.398	21.5
826.492	18
827.586	28
828.679	36
829.772	26.5
830.865	7
831.957	32.5
833.049	49
834.141	23.5
835.232	17
836.323	37
837.414	31
838.505	27
839.595	19
840.685	44.5
841.774	29
842.864	27
843.952	34.5
845.041	43
846.129	32
847.218	43.5
848.306	43.25
849.393	43
850.48	19.5
851.567	19
852.654	35
853.74	27.5
854.826	28
855.912	26
856.997	43
858.082	23.5
859.167	20
860.252	41
861.336	26.5
862.42	32
863.504	25
864.587	35
865.67	32.5
866.753	32
867.835	32.5
868.917	39
869.999	23.5
871.081	32.5
872.162	29
873.243	30.5
874.323	33
875.404	32.5
876.484	35.5
877.564	28
878.643	19.5
879.722	47
880.802	33
881.88	11
882.958	43
884.036	35
885.113	24
886.191	20
887.268	26
888.344	18
889.421	18
890.498	4
891.573	29
892.649	20.5
893.724	11.5
894.799	18
895.874	27.5
896.948	13
898.022	-2
899.096	21
900.17	43
901.243	5
902.315	12
903.389	41
904.461	44.5
905.533	-1
906.605	31
907.676	29.5
908.747	0
909.818	18
910.888	44
911.958	28
913.028	23
914.098	4.5
915.167	24
916.237	26
917.306	9.5
918.374	28
919.442	36
920.51	16
921.577	4
922.644	12
923.711	24
924.778	15.5
925.845	18
926.911	29.5
927.977	11
929.042	-4
930.107	26
931.173	32.5
932.237	-4.5
933.301	10
934.365	30
935.429	25
936.492	11
937.556	19
938.619	26.5
939.681	17.5
940.743	2
941.805	27
942.867	28
943.928	4.5
944.989	14
946.05	26
947.11	17.5
948.17	12.5
949.23	17
950.29	23.5
951.349	21
952.409	-11
953.467	24
954.526	14.5
955.584	1.5
956.641	7
957.699	16
958.756	12
959.813	6
960.869	17
961.926	35.5
962.982	22
964.038	2
965.094	23
966.149	16.5
967.204	3.5
968.258	12
969.312	24
970.366	7
971.42	14
972.473	32.5
973.527	18
974.58	16
975.631	7
976.684	21
977.736	24
978.787	-1
979.839	-8
980.89	16
981.94	2
982.991	3.5
984.041	6.5
985.091	15.5
986.141	-3
987.19	-11
988.239	-19
989.288	2.5
990.336	-21
991.384	-4
992.432	4
993.48	-5.5
994.527	4
995.574	-1
996.62	10
997.666	3.5
998.713	-15
999.759	16
1000.8	6
1001.85	-9
1002.89	10
1003.94	14
1004.98	-8
1006.03	-4.5
1007.07	-1
1008.11	4.5
1009.16	5
1010.2	1
1011.24	25
1012.29	17
1013.33	2
1014.37	-22
1015.41	12.5
1016.45	3
1017.49	-9
1018.53	8
1019.57	19
1020.61	4.5
1021.65	5
1022.69	5
1023.73	16
1024.77	-8.5
1025.81	-3
1026.85	21
1027.88	16.5
1028.92	-4
1029.96	20
1031	16.5
1032.03	0
1033.07	5
1034.1	20
1035.14	12
1036.18	9
1037.21	17
1038.25	18
1039.28	-2
1040.32	4
1041.35	18
1042.38	17
1043.42	11
1044.45	-2
1045.48	21
1046.52	16
1047.55	-1.5
1048.58	3
1049.61	14.5
1050.64	-4
1051.67	-2
1052.71	3
1053.74	19
1054.77	-3
1055.8	10
1056.83	20
1057.85	9
1058.88	3.5
1059.91	22.5
1060.94	44.5
1061.97	22
1063	20
1064.03	30
1065.05	28
1066.08	21
1067.11	0
1068.13	43
1069.16	20
1070.19	11
1071.21	9
1072.24	48
1073.26	17
1074.29	21
1075.31	34
1076.34	29
1077.36	23
1078.38	14
1079.41	29
1080.43	16
1081.45	-3
1082.47	36.5
1083.5	31
1084.52	26
1085.54	15
1086.56	22
1087.58	33
1088.6	24.5
1089.62	11
1090.64	34
1091.66	20.5
1092.68	3.5
1093.7	28
1094.72	14.5
1095.74	9
1096.76	10
1097.78	25.5
1098.79	19
1099.81	5
1100.83	2
1101.85	30
1102.86	-2
1103.88	-1
1104.9	10
1105.91	21
1106.93	3
1107.94	10.5
1108.96	14.5
1109.97	6
1110.99	-1.5
1112	6
1113.01	17.5
1114.03	-4
1115.04	-3
1116.05	7
1117.07	8
1118.08	-4
1119.09	1
1120.1	16
1121.11	1
1122.13	-10
1123.14	-3
1124.15	25.5
1125.16	-2
1126.17	-10
1127.18	11
1128.19	4
1129.2	-4
1130.2	-2
1131.21	2
1132.22	-11
1133.23	-4.5
1134.24	-1
1135.25	15
1136.25	-7
1137.26	-13
1138.27	8
1139.27	-11
1140.28	-13.5
1141.28	-3
1142.29	6
1143.29	6
1144.3	-10.5
1145.3	-22
1146.31	0
1147.31	5
1148.32	-9
1149.32	18.4452
1150.32	0.592857
1151.33	-4.67999
1152.33	10.1279
1153.33	5.7855
1154.33	-4.44214
1155.33	-10.3302
1156.34	-4.92902
1157.34	8.58612
1158.34	-9.18893
1159.34	-3.27657
1160.34	-2.7653
1161.34	-4.9219
1162.34	-25.8288
1163.34	-2.09072
1164.34	4.81302
1165.34	5.12942
1166.33	-15.9547
1167.33	-9.00854
1168.33	9.3514
1169.33	-5.56614
1170.33	-22.3273
1171.32	4.77413
1172.32	4.05978
1173.32	-6.70815
1174.31	-7.67482
1175.31	13.8323
1176.31	-3.98809
1177.3	-8.38597
1178.3	-4.5978
1179.29	3.12248
1180.29	-2.92417
1181.28	-11.1586
1182.27	17.8963
1183.27	-6.67517
1184.26	-8.82754
1185.25	-1.51907
1186.25	7.70549
1187.24	12.1564
1188.23	-1.59266
1189.22	-1.05128
1190.22	6.47407
1191.21	-7.36094
1192.2	-3.82769
1193.19	3.0749
1194.18	-1.84943
1195.17	-3.05159
1196.16	3.36422
1197.15	5.3105
1198.14	5.33887
1199.13	-8.49464
1200.12	-9.60244
1201.11	13.1037
1202.09	1.28963
1203.08	-2.43111
1204.07	-1.68929
1205.06	1.56772
1206.04	-2.79914
1207.03	-10.3309
1208.02	-0.15991
1209	2.26397
1209.99	1.22886
1210.98	5.72252
1211.96	0.953761
1212.95	1.17774
1213.93	3.20218
1214.92	7.61831
1215.9	8.7419
1216.89	5.71319
1217.87	-2.99402
1218.85	7.32882
1219.84	11.0987
1220.82	4.07995
1221.8	6.7707
1222.78	5.73562
1223.77	4.57775
1224.75	3.34697
1225.73	10.5258
1226.71	12.661
1227.69	20.426
1228.67	13.1855
1229.65	6.94563
1230.63	2.74556
1231.61	20.343
1232.59	12.4817
1233.57	21.982
1234.55	14.941
1235.53	23.7208
1236.51	16.6373
1237.49	12.0204
1238.46	21.083
1239.44	11.4444
1240.42	3.87723
1241.4	22.2489
1242.37	22.2779
1243.35	16.5223
1244.32	24.7144
1245.3	28.1578
1246.28	30.0304
1247.25	26.5535
1248.23	27.9924
1249.2	41.3246
1250.18	43.0488
1251.15	31.0824
1252.12	34.6262
1252.72	48
1253.73	56
1254.74	47
1255.75	44
1256.75	60.5
1257.76	60.5
1258.77	36
1259.78	57.5
1260.79	65
1261.79	42
1262.8	54
1263.81	66
1264.81	63
1265.82	48
1266.82	62
1267.83	63.5
1268.83	61
1269.84	50
1270.84	39
1271.85	49
1272.85	54.5
1273.86	43.5
1274.86	62
1275.86	55
1276.87	30.5
1277.87	27.5
1278.87	43
1279.88	47
1280.88	26.5
1281.88	26
1282.88	31
1283.88	9
1284.88	28
1285.88	46
1286.89	39
1287.89	18
1288.89	30
1289.89	30
1290.89	26
1291.89	35.5
1292.88	37
1293.88	55
1294.88	49.5
1295.88	40.5
1296.88	60.5
1297.88	57
1298.88	55
1299.87	47
1300.87	51
1301.87	66
1302.86	60
1303.86	60.5
1304.86	55
1305.85	50
1306.85	28.5
1307.85	44
1308.84	49.5
1309.84	45.5
1310.83	28
1311.83	43
1312.82	45.5
1313.81	24.5
1314.81	40.5
1315.8	42
1316.8	13
1317.79	13.5
1318.78	51
1319.77	27
1320.77	23.5
1321.76	40
1322.75	33
1323.74	24.5
1324.73	16
1325.72	28
1326.72	22
1327.71	12
1328.7	10
1329.69	34
1330.68	22
1331.67	6
1332.66	33.5
1333.65	24
1334.63	16
1335.62	26.5
1336.61	22
1337.6	23
1338.59	23.5
1339.58	6
1340.56	37.5
1341.55	13
1342.54	16
1343.53	26
1344.51	9
1345.5	10
1346.48	21.5
1347.47	26.5
1348.45	11
1349.44	14.5
1350.43	15.5
1351.41	30.5
1352.4	15
1353.38	3
1354.36	23
1355.35	23
1356.33	14
1357.31	20
1358.3	9
1359.28	15
1360.26	3
1361.25	21.5
1362.23	31.5
1363.21	22
1364.19	16
1365.17	29
1366.15	-1
1367.14	14
1368.12	20
1369.1	9
1370.08	22
1371.06	15
1372.04	10.5
1373.02	13
1373.99	6
1374.97	3
1375.95	15
1376.93	19
1377.91	10
1378.89	4
1379.86	13
1380.84	18
1381.82	6
1382.8	21
1383.77	16.5
1384.75	11.5
1385.73	6.5
1386.7	11.5
1387.68	18
1388.65	8.5
1389.63	1
1390.6	21
1391.58	-1
1392.55	0
1393.53	5
1394.5	0
1395.48	11
1396.45	7
1397.42	13
1398.4	10
1399.37	10
1400.34	3.5
1401.31	13
1402.29	-4
1403.26	1
1404.23	-1
1405.2	22.5
1406.17	1.5
1407.14	-14
1408.11	19
1409.08	3
1410.05	12.5
1411.02	9
1411.99	8
1412.96	7
1413.93	5
1414.9	19
1415.87	28
1416.84	13.5
1417.81	17
1418.78	26
1419.74	7
1420.71	12.5
1421.68	16.5
1422.65	20
1423.61	9
1424.58	15
1425.55	29
1426.51	30
1427.48	18
1428.44	28
1429.41	47.5
1430.37	36
1431.34	36.5
1432.3	53.5
1433.27	66.5
1434.23	75
1435.2	58
1436.16	76
1437.12	65
1438.09	77
1439.05	67
1440.01	73
1440.97	62
1441.94	48.5
1442.9	52
1443.86	56
1444.82	50.5
1445.78	42
1446.74	47
1447.7	52
1448.67	38.5
1449.63	41.5
1450.59	53
1451.55	25
1452.5	37
1453.46	34
1454.42	41
1455.38	32
1456.34	31.5
1457.3	42
1458.26	5
1459.21	21
1460.17	26
1461.13	30
1462.09	14
1463.04	9.5
1464	33.5
1464.96	21
1465.91	15
1466.87	-6.5
1467.82	21.5
1468.78	20.5
1469.73	8
1470.69	15.5
1471.64	-6
1472.6	2
1473.55	-3.5
1474.51	17.5
1475.46	1.5
1476.41	5.5
1477.37	-4.5
1478.32	3
1479.27	-2.5
1480.23	-3
1481.18	6.5
1482.13	5
1483.08	-17
1484.03	-5.5
1484.98	1
1485.94	-21
1486.89	-10
1487.84	-4
1488.79	-21
1489.74	-7.5
1490.69	-7.5
1491.64	-14
1492.59	-3
1493.54	-27
1494.48	-11
1495.43	-5
1496.38	-5.5
1497.33	-11.5
1498.28	-7
1499.23	-16
1500.17	-12
1501.12	-6.5
1502.07	-3.5
1503.01	-7
1503.96	-22
1504.91	-13
1505.85	1
1506.8	-37
1507.74	-10
1508.69	-4
1509.64	-21
1510.58	-10
1511.52	-11
1512.47	1
1513.41	2
1514.36	-20.5
1515.3	-8
1516.24	8
1517.19	-21
1518.13	-11
1519.07	-15
1520.01	-2
1520.96	-15.5
1521.9	-12.5
1522.84	3.5
1523.78	-22
1524.72	-23.5
1525.66	-13.5
1526.6	-2
1527.55	-12.5
1528.49	-17
1529.43	-10.5
1530.37	-1
1531.3	-21
1532.24	-6.5
1533.18	-11
1534.12	-5.5
1535.06	-21
1536	-1
1536.94	-1.5
1537.88	-20
1538.81	-14
1539.75	-5
1540.69	-15
1541.62	-17
1542.56	-16.5
1543.5	-10
1544.43	-12.5
1545.37	-29
1546.3	-15
1547.24	-1
1548.18	-28
1549.11	-27.5
1550.05	-17
1550.98	-22
1551.91	-17
1552.85	-23.5
1553.78	-3
1554.72	-21
1555.65	-21
1556.58	-14
1557.51	-3
1558.45	-20.5
1559.38	-26.5
1560.31	-11.5
1561.24	-20
1562.17	-28
1563.11	-36.5
1564.04	-10
1564.97	-4
1565.9	-34.5
1566.83	-2
1567.76	-10.5
1568.69	-28
1569.62	-25.5
1570.55	-3.5
1571.48	-19
1572.41	-21
1573.34	-21.5
1574.26	0
1575.19	-29
1576.12	-26
1577.05	-15
1577.98	-7
1578.9	-19
1579.83	-51
1580.76	-15
1581.68	-17
1582.61	-8
1583.54	-18
1584.46	-21
1585.39	-21
1586.31	-29
1587.24	-13.5
1588.16	-5
1589.09	-15
1590.01	-15
1590.94	-10.5
1591.86	-34
1592.78	-17
1593.71	-17.5
1594.63	-12
1595.55	-21
1596.48	-24
1597.4	-16
1598.32	-23
1599.24	-31
1600.17	-23
1601.09	-11
1602.01	-28
1602.93	-24.5
1603.85	-18.5
1604.77	-18
1605.69	-24
1606.61	-23.5
1607.53	-7.5
1608.45	-8
1609.37	-20
1610.29	-17
1611.21	-6
1612.13	-28
1613.05	-10.5
1613.96	-19.5
1614.88	-9
1615.8	-44
1616.72	-30
1617.63	-12
1618.55	-23.5
1619.47	-27
1620.38	-13
1621.3	-9
1622.22	-14.5
1623.13	-32
1624.05	-10.5
1624.96	-16.5
1625.88	-19
1626.79	-28
1627.71	-21
1628.62	-12
1629.54	-20.5
1630.45	-9.5
1631.37	-11.5
1632.28	-14
1633.19	-13
1634.1	-16
1635.02	-4
1635.93	-19
1636.84	-18
1637.75	-16
1638.67	-21.5
1639.58	-21.5
1640.49	-16.5
1641.4	-15
1642.31	-8.5
1643.22	-5
1644.13	15.5
1645.04	8
1645.95	-2
1646.86	8
1647.77	18
1648.68	25
1649.59	12
1650.5	22
1651.41	43
1652.31	26
1653.22	27
1654.13	41
1655.04	49
1655.95	37
1656.85	46.5
1657.76	54
1658.67	37
1659.57	35.5
1660.48	34
1661.38	28
1662.29	9.5
1663.2	11.5
1664.1	6.5
1665.01	8
1665.91	-16
1666.81	-5
1667.72	5
1668.62	-6
1669.53	-20.5
1670.43	-15
1671.33	-7
1672.24	-11
1673.14	-22
1674.04	-6.5
1674.94	-27
1675.85	-19
1676.75	-21.5
1677.65	-6
1678.55	-22
1679.45	-38
1680.35	-5.5
1681.25	-21
1682.15	-16
1683.05	-16
1683.95	-10.5
1684.85	0.5
1685.75	-27
1686.65	-16
1687.55	-3
1688.45	-17.5
1689.35	-24
1690.25	-7.5
1691.15	-18
1692.04	-20
1692.94	-28
1693.84	-16
1694.74	-17
1695.63	-27
1696.53	-33.5
1697.43	-18
1698.32	-18
1699.22	-24.5
1700.11	-10
1701.01	-5
1701.9	-35
1702.8	-42
1703.69	-10.5
1704.59	-24
1705.48	-31
1706.38	-20
1707.27	-19
1708.16	-31.5
1709.06	-28
1709.95	-18
1710.84	-27.5
1711.74	-30.5
1712.63	-20.5
1713.52	-10.5
1714.41	-23
1715.3	-27
1716.2	-24.5
1717.09	-11
1717.98	-21.5
1718.87	-20.5
1719.76	-24.5
1720.65	-14
1721.54	-35.5
1722.43	-19
1723.32	-18
1724.21	-22
1725.1	-25.5
1725.99	-23.5
1726.88	-14
1727.76	-27.5
1728.65	-19.5
1729.54	-20
1730.43	-19
1731.31	-21.5
1732.2	-34.5
1733.09	-18
1733.98	-24
1734.86	-13.5
1735.75	-16
1736.63	-25
1737.52	-27
1738.41	-18.5
1739.29	-13
1740.18	-10
1741.06	-5
1741.95	-12.5
1742.83	-9
1743.72	-19
1744.6	-21
1745.48	-11
1746.37	-19.5
1747.25	-27
1748.13	-17
1749.02	-15.5
1749.9	-4
1750.78	-27
1751.66	-16.5
1752.54	-16
1753.43	-13
1754.31	-27
1755.19	-15
1756.07	-16.5
1756.95	-30
1757.83	-24
1758.71	-11.5
1759.59	-30
1760.47	-25.5
1761.35	-10
1762.23	-20
1763.11	-27
1763.99	-29
1764.87	-19
1765.74	-26.5
1766.62	-20.5
1767.5	-30.5
1768.38	-35
1769.25	-20
1770.13	-27.5
1771.01	-22.5
1771.89	-9.5
1772.76	-22
1773.64	-37.5
1774.51	-17
1775.39	-23
1776.27	-27
1777.14	-31.5
1778.02	-20
1778.89	-19.5
1779.76	-31
1780.64	-21
1781.51	-16.5
1782.39	-30
1783.26	-19.5
1784.13	-22
1785.01	-17
1785.88	-31.5
1786.75	-23.5
1787.63	-9
1788.5	-26.5
1789.37	-29
1790.24	-22
1791.11	-18
1791.98	-23
1792.86	-32
1793.73	-33
1794.6	-26
1795.47	-29
1796.34	-19.5
1797.21	-30.5
1798.08	-33
1798.95	-32.5
1799.82	-17
1800.68	-29.5
1801.55	-29
1802.42	-32.5
1803.29	-24
1804.16	-20
1805.03	-39
1805.89	-22
1806.76	-17
1807.63	-30.5
1808.49	-38.5
1809.36	-20.5
1810.23	-28
1811.09	-26
1811.96	-29
1812.83	-10
1813.69	-36
1814.56	-20.5
1815.42	-23
1816.29	-11.5
1817.15	-32.5
1818.02	-32
1818.88	-14.5
1819.74	-21
1820.61	-14
1821.47	-25
1822.33	-16
1823.2	-28
1824.06	-23
1824.92	-22.5
1825.78	-36
1826.65	-44
1827.51	-22.5
1828.37	-9
1829.23	-39
1830.09	-30
1830.95	-25
1831.81	-19.5
1832.67	-34
1833.53	-23.5
1834.39	-21.5
1835.25	-11.5
1836.11	-48
1836.97	-38
1837.83	-20
1838.69	-25
1839.55	-32
1840.41	-33
1841.26	-40
1842.12	-29.5
1842.98	-15
1843.84	-20
1844.69	-29
1845.55	-42
1846.41	-34
1847.26	-28
1848.12	-38
1848.98	-29
1849.83	-22
1850.69	-25
1851.54	-41
1852.4	-30.5
1853.25	-22
1854.11	-31
1854.96	-29
1855.82	-31.5
1856.67	-18.5
1857.52	-28
1858.38	-18
1859.23	-29.5
1860.08	-36
1860.93	-33
1861.79	-31
1862.64	-19.5
1863.49	-18
1864.34	-30
1865.19	-27.5
1866.05	-19
1866.9	-41
1867.75	-33
1868.6	-15.5
1869.45	-30
1870.3	-29
1871.15	-32
1872	-16.5
1872.85	-23
1873.7	-29.5
1874.55	-36.5
1875.4	-23.5
1876.24	-32
1877.09	-28.5
1877.94	-15.5
1878.79	-49
1879.64	-40
1880.48	-31
1881.33	-25.5
1882.18	-30
1883.02	-34
1883.87	-25
1884.72	-18
1885.56	-38
1886.41	-31.5
1887.25	-14.5
1888.1	-34
1888.94	-26
1889.79	-19.5
1890.63	-23
1891.48	-31
1892.32	-33
1893.17	-17
1894.01	-6
1894.85	-44
1895.7	-21
1896.54	-8
1897.38	-32
1898.23	-24
1899.07	-42.5
1899.91	-20.5
1900.75	-39
1901.59	-26
1902.44	-31.5
1903.28	-21
1904.12	-18
1904.96	-25
1905.8	-12
1906.64	-33
1907.48	-47
1908.32	-28
1909.16	-15
1910	-35
1910.84	-34
1911.68	-29.5
1912.51	-23.5
1913.35	-32
1914.19	-25.5
1915.03	-22.5
1915.87	-37
1916.7	-36.5
1917.54	-27
1918.38	-13
1919.21	-33
1920.05	-38.5
1920.89	-23.5
1921.72	-9
1922.56	-43
1923.4	-24
1924.23	-18
1925.07	-34
1925.9	-16.5
1926.74	-13
1927.57	-18
1928.41	-31
1929.24	-29
1930.07	-32.5
1930.91	-15
1931.74	-26.5
1932.57	-21
1933.41	-23
1934.24	-48
1935.07	-33.5
1935.9	-26.5
1936.74	-34
1937.57	-30
1938.4	-35
1939.23	-23.5
1940.06	-31
1940.89	-25
1941.72	-19.5
1942.55	-24
1943.38	-40
1944.21	-29
1945.04	-20.5
1945.87	-32
1946.7	-40
1947.53	-22
1948.36	-9.5
1949.19	-26.5
1950.02	-36.5
1950.84	-24.5
1951.67	-11
1952.5	-45
1953.33	-42.5
1954.15	-28
1954.98	-15
1955.81	-37.5
1956.64	-35
1957.46	-16
1958.29	-30
1959.11	-36
1959.94	-26
1960.76	-17
1961.59	-28
1962.41	-36
1963.24	-21.5
1964.06	-29
1964.89	-31.5
1965.71	-26
1966.53	-22
1967.36	-20
1968.18	-31.5
1969	-28
1969.83	-27
1970.65	-44
1971.47	-34
1972.3	-23
1973.12	-27.5
1973.94	-34.5
1974.76	-27.5
1975.58	-10
1976.4	-23
1977.22	-34
1978.04	-23.5
1978.86	-25
1979.68	-35
1980.5	-37
1981.32	-26
1982.14	-21.5
1982.96	-19
1983.78	-29.5
1984.6	-19.5
1985.42	-40
1986.24	-36
1987.06	-15.5
1987.87	-18
1988.69	-46
1989.51	-32
1990.32	-12.5
1991.14	-34
1991.96	-27
1992.78	-35.5
1993.59	-20
1994.41	-40
1995.22	-38.5
1996.04	-13.5
1996.85	-27
1997.67	-29.95
1998.48	-23.6243
1999.3	-27.8824
2000.11	-27.9802
2000.93	-28.1613
2001.74	-28.7163
2002.56	-21.139
2003.37	-22.8479
2004.18	-30.8068
2004.99	-8.35857
2005.81	-19.8816
2006.62	-46.4857
2007.43	-26.798
2008.25	-10.6808
2009.06	-26.3441
2009.87	-25.3211
2010.68	-28.05
2011.49	-25.1943
2012.3	-29.0798
2013.11	-31.2039
2013.92	-20.3521
2014.73	-26.9643
2015.54	-37.3166
2016.35	-31.5214
2017.16	-16.8683
2017.97	-16.2268
2018.78	-33.9552
2019.59	-16.4105
2020.4	-22.463
2021.21	-29.1816
2022.02	-24.1568
2022.83	-12.5735
2023.63	-27.536
2024.44	-32.7072
2025.25	-26.7093
2026.06	-25.4299
2026.86	-30.1657
2027.67	-18.5101
2028.48	-20.6965
2029.28	-14.8442
2030.09	-24.3848
2030.89	-32.8019
2031.7	-20.3479
2032.5	-23.6474
2033.31	-26.243
2034.11	-21.8143
2034.92	-18.8861
2035.72	-28.3081
2036.53	-31.7669
2037.33	-19.15
2038.14	-18.789
2038.94	-25.719
2039.74	-22.9099
2040.55	-16.7833
2041.35	-27.4716
2042.15	-29.2391
2042.95	-28.3516
2043.76	-23.8179
2044.56	-33.9791
2045.36	-25.1997
2046.16	-17.4985
2046.96	-20.6846
2047.76	-19.2435
2048.56	-19.7435
2049.37	-22.7303
2050.17	-26.315
2050.97	-24.0987
2051.77	-23.7433
2052.57	-26.8725
2053.36	-34.7715
2054.16	-25.0329
2054.96	-20.598
2055.76	-25.7067
2056.56	-22.9026
2057.36	-28.1756
2058.16	-14.779
2058.96	-25.74
2059.75	-31.4123
2060.55	-22.2561
2061.35	-19.8717
2062.14	-21.7423
2062.94	-25.0741
2063.74	-18.8435
2064.53	-17.3529
2065.33	-29.7617
2066.13	-19.4844
2066.92	-14.4094
2067.72	-15.9813
2068.51	-22.9671
2069.31	-19.0803
2070.1	-11.5818
2070.9	-15.4387
2071.69	-20.7522
2072.49	-17.0811
2073.28	-15.4956
2074.07	-19.9187
2074.87	-8.96849
2075.66	-13.7329
2076.45	-21.4839
2077.25	-22.3512
2078.04	-26.1557
2078.83	-14.6303
2079.62	-10.2404
2080.41	-16.9086
2081.21	-17.255
2081.38	-17
2082.2	-10.5
2083.03	-17.5
2083.86	-4
2084.68	-4.5
2085.51	-19.5
2086.34	-25
2087.16	-18
2087.99	-12.5
2088.81	-23
2089.64	-17
2090.46	-6
2091.29	-13.5
2092.11	-11
2092.94	-30
2093.76	-3.5
2094.58	-17
2095.41	-20
2096.23	-13
2097.06	-17
2097.88	-9
2098.7	-13
2099.53	-32
2100.35	-17
2101.17	-19
2101.99	-31
2102.81	-27
2103.64	-11
2104.46	-27
2105.28	-14.5
2106.1	-15
2106.92	-6
2107.74	-22
2108.56	-12
2109.38	-16.5
2110.2	-22
2111.03	-14
2111.84	-17.5
2112.66	-21
2113.48	-24
2114.3	-21
2115.12	-12
2115.94	-9
2116.76	-13
2117.58	-10
2118.4	-24
2119.22	-19
2120.03	-26
2120.85	-21.5
2121.67	-15
2122.49	-29
2123.3	-8
2124.12	-11.5
2124.94	-8
2125.76	-33
2126.57	-24.5
2127.39	-10.5
2128.2	-22
2129.02	-7
2129.83	-21
2130.65	-17.5
2131.47	-31
2132.28	-16
2133.1	-4.5
2133.91	-26
2134.73	-21
2135.54	-19.5
2136.35	-26
2137.17	-31
2137.98	-15
2138.79	-4.5
2139.61	-15
2140.42	-22
2141.23	-18
2142.05	-13.5
2142.86	-16
2143.67	-20
2144.48	-21
2145.3	-33.5
2146.11	-21
2146.92	-21
2147.73	-9.5
2148.54	-13
2149.35	-33
2150.16	-22
2150.97	-16.5
2151.79	-24
2152.6	-29
2153.41	-18.5
2154.22	-29.5
2155.02	-7
2155.83	-26
2156.64	-21.5
2157.45	-12
2158.26	-32
2159.07	-16
2159.88	-19.5
2160.69	-18.5
2161.5	-16
2162.3	-15.5
2163.11	-30.5
2163.92	-13
2164.73	-20.5
2165.53	-19
2166.34	-15.5
2167.15	-31
2167.95	-23
2168.76	-20
2169.57	-20
2170.37	-33
2171.18	-30
2171.98	-15.5
2172.79	-24
2173.59	-20
2174.4	-20
2175.2	-22
2176.01	-19
2176.81	-12
2177.62	-15
2178.42	-21
2179.22	-34
2180.03	-23
2180.83	-26
2181.63	-31
2182.44	-23
2183.24	-17
2184.04	-32
2184.85	-49
2185.65	-2.5
2186.45	-24.5
2187.25	-27
2188.05	-28
2188.86	-27
2189.66	-20.5
2190.46	-17
2191.26	-25
2192.06	-27.5
2192.86	-25
2193.66	-38
2194.46	-17.5
2195.26	-19
2196.06	-20
2196.86	-39
2197.66	-29
2198.46	-34
2199.26	-37
2200.06	-17
2200.85	-20
2201.65	-26.5
2202.45	-36
2203.25	-22.5
2204.05	-28
2204.84	-26
2205.64	-34
2206.44	-33.5
2207.24	-27.5
2208.03	-36
2208.83	-20.5
2209.63	-28.5
2210.42	-30
2211.22	-30
2212.01	-23
2212.81	-43.5
2213.61	-29
2214.4	-19
2215.2	-23
2215.99	-25.5
2216.79	-16.5
2217.58	-35
2218.37	-27
2219.17	-23.5
2219.96	-44
2220.76	-25
2221.55	-28
2222.34	-35
2223.14	-23.5
2223.93	-31.5
2224.72	-27
2225.51	-27
2226.31	-40
2227.1	-28.5
2227.89	-30
2228.68	-40
2229.47	-32
2230.27	-32.5
2231.06	-26
2231.85	-38
2232.64	-41.5
2233.43	-30.5
2234.22	-25
2235.01	-43.5
2235.8	-23
2236.59	-25
2237.38	-36
2238.17	-29.5
2238.96	-27
2239.75	-24.5
2240.54	-24.5
2241.33	-39.5
2242.11	-36
2242.9	-24
2243.69	-36
2244.48	-32.5
2245.27	-33
2246.05	-39
2246.84	-31.5
2247.63	-30
2248.41	-51
2249.2	-23
2249.99	-33
2250.77	-33
2251.56	-30
2252.35	-29
2253.13	-33.5
2253.92	-33
2254.7	-28
2255.49	-38.5
2256.27	-19
2257.06	-27
2257.84	-25
2258.63	-24.5
2259.41	-41
2260.2	-26
2260.98	-40
2261.76	-38
2262.55	-33
2263.33	-32.5
2264.11	-21.5
2264.9	-27
2265.68	-41
2266.46	-26
2267.24	-36.5
2268.03	-29
2268.81	-36
2269.59	-37
2270.37	-35.5
2271.15	-46
2271.93	-35
2272.71	-22
2273.5	-41
2274.28	-34
2275.06	-36
2275.84	-39.5
2276.62	-39
2277.4	-26
2278.18	-39
2278.96	-20.5
2279.73	-43
2280.51	-40
2281.29	-36.5
2282.07	-26
2282.85	-31
2283.63	-28.5
2284.41	-43
2285.18	-41
2285.96	-37
2286.74	-23.5
2287.52	-29.5
2288.29	-43
2289.07	-27
2289.85	-48.5
2290.62	-20
2291.4	-28
2292.18	-41.5
2292.95	-34
2293.73	-32
2294.5	-26
2295.28	-30
2296.05	-38
2296.83	-40
2297.6	-38
2298.38	-38
2299.15	-28
2299.93	-34
2300.7	-37
2301.48	-32
2302.25	-55
2303.02	-27
2303.8	-39.5
2304.57	-39
2305.34	-38.5
2306.11	-34
2306.89	-37
2307.66	-23
2308.43	-34
2309.2	-36.5
2309.97	-41
2310.75	-29
2311.52	-30.5
2312.29	-41
2313.06	-43.5
2313.83	-35
2314.6	-33.5
2315.37	-49.5
2316.14	-45
2316.91	-24
2317.68	-40
2318.45	-26
2319.22	-28
2319.99	-21
2320.76	-37.5
2321.53	-31
2322.3	-34
2323.06	-41
2323.83	-36
2324.6	-36
2325.37	-37
2326.14	-31.5
2326.9	-34
2327.67	-24
2328.44	-23.5
2329.21	-29
2329.97	-37.5
2330.74	-35
2331.5	-33.5
2332.27	-41.5
2333.04	-20
2333.8	-35
2334.57	-36
2335.33	-31
2336.1	-19.5
2336.86	-26
2337.63	-29.5
2338.39	-28.5
2339.16	-42
2339.92	-32.5
2340.69	-38
2341.45	-35
2342.21	-24
2342.98	-28.5
2343.74	-35
2344.5	-29
2345.27	-46
2346.03	-30
2346.79	-33
2347.55	-31
2348.31	-36.5
2349.08	-31.5
2349.84	-29
2350.6	-23
2351.36	-39.5
2352.12	-34
2352.88	-30
2353.64	-27
2354.41	-32.5
2355.17	-28
2355.93	-39
2356.69	-30
2357.45	-39
2358.21	-36
2358.96	-39
2359.72	-44.5
2360.48	-33
2361.24	-27
2362	-42
2362.76	-26.5
2363.52	-33.5
2364.28	-37.5
2365.03	-33.5
2365.79	-43.5
2366.55	-38
2367.31	-26.5
2368.06	-43
2368.82	-31.5
2369.58	-26
2370.33	-30.5
2371.09	-35.5
2371.85	-33
2372.6	-32
2373.36	-35.5
2374.11	-34.5
2374.87	-34
2375.62	-30
2376.38	-34
2377.13	-56
2377.89	-29
2378.64	-23
2379.4	-42.5
2380.15	-28
2380.9	-33
2381.66	-45
2382.41	-38
2383.16	-46
2383.92	-35
2384.67	-30
2385.42	-41.5
2386.18	-24
2386.93	-32.5
2387.68	-33.5
2388.43	-46
2389.18	-29
2389.94	-39
2390.69	-42.5
2391.44	-34
2392.19	-25.5
2392.94	-37
2393.69	-39
2394.44	-27
2395.19	-38
2395.94	-38
2396.69	-28
2397.44	-44
2398.19	-38
2398.94	-37
2399.69	-41
2400.44	-39
2401.19	-37
2401.93	-38
2402.68	-27
2403.43	-36.5
2404.18	-25.5
2404.93	-23
2405.67	-32
2406.42	-46.5
2407.17	-32
2407.92	-19.5
2408.66	-28
2409.41	-34
2410.16	-36.5
2410.9	-27
2411.65	-35.5
2412.39	-39
2413.14	-42
2413.89	-40.5
2414.63	-35
2415.38	-36.5
2416.12	-30
2416.86	-23
2417.61	-37
2418.35	-34
2419.1	-24
2419.84	-17
2420.59	-44
2421.33	-25
2422.07	-31.5
2422.82	-42
2423.56	-48
2424.3	-34
2425.04	-32
2425.79	-36
2426.53	-35
2427.27	-36
2428.01	-33.5
2428.75	-38
2429.5	-30
2430.24	-37.5
2430.98	-41
2431.72	-35
2432.46	-29.5
2433.2	-27
2433.94	-42
2434.68	-47
2435.42	-46
2436.16	-53
2436.9	-35
2437.64	-28.5
2438.38	-31
2439.12	-43
2439.86	-32
2440.59	-28
2441.33	-22.5
2442.07	-32.5
2442.81	-40
2443.55	-24.5
2444.28	-31
2445.02	-40
2445.76	-41
2446.5	-37
2447.23	-46.5
2447.97	-38
2448.71	-26
2449.44	-33
2450.18	-24
2450.91	-47
2451.65	-34
2452.39	-36
2453.12	-37
2453.86	-47
2454.59	-22
2455.33	-45
2456.06	-33
2456.79	-28
2457.53	-32.5
2458.26	-39.5
2459	-45
2459.73	-28
2460.46	-46.5
2461.2	-41
2461.93	-34
2462.66	-26
2463.4	-36
2464.13	-34
2464.86	-32
2465.59	-25.5
2466.32	-43
2467.06	-52
2467.79	-28.5
2468.52	-33
2469.25	-32
2469.98	-25.5
2470.71	-30
2471.44	-37.5
2472.17	-39
2472.9	-24
2473.63	-38.5
2474.36	-37
2475.09	-39
2475.82	-32
2476.55	-37
2477.28	-33
2478.01	-26.5
2478.74	-42
2479.47	-30.5
2480.19	-33
2480.92	-33.5
2481.65	-31.5
2482.38	-39.5
2483.11	-36
2483.83	-39
2484.56	-45
2485.29	-19.5
2486.01	-39
2486.74	-50
2487.47	-38
2488.19	-37
2488.92	-37
2489.65	-37
2490.37	-32
2491.1	-36
2491.82	-39
2492.55	-44
2493.27	-36.75
2494	-29.5
2494.72	-35.5
2495.45	-41
2496.17	-36
2496.89	-36
2497.62	-24
2498.34	-41
2499.06	-35.5
2499.79	-26.5
2500.51	-47.5
2501.23	-43
2501.96	-35
2502.68	-40
2503.4	-48
2504.12	-43
2504.84	-17.5
2505.57	-34.5
2506.29	-34
2507.01	-34
2507.73	-31
2508.45	-31.5
2509.17	-26
2509.89	-35.5
2510.61	-40
2511.33	-42
2512.05	-44
2512.77	-39
2513.49	-38
2514.21	-46.5
2514.93	-48
2515.65	-37.5
2516.37	-42
2517.09	-40
2517.81	-31.5
2518.52	-38.5
2519.24	-46
2519.96	-29.5
2520.68	-44
2521.4	-37
2522.11	-38
2522.83	-33
2523.55	-45.5
2524.26	-35.5
2524.98	-33
2525.7	-26
2526.41	-44
2527.13	-49
2527.84	-38
2528.56	-29
2529.28	-34.5
2529.99	-33
2530.71	-33
2531.42	-32.5
2532.14	-32
2532.85	-42
2533.56	-22
2534.28	-36
2534.99	-31
2535.71	-23
2536.42	-30.5
2537.13	-39
2537.85	-23.5
2538.56	-35
2539.27	-30.5
2539.98	-31.5
2540.7	-29
2541.41	-29
2542.12	-37
2542.83	-44.5
2543.54	-41
2544.26	-28
2544.97	-31.5
2545.68	-34
2546.39	-25.5
2547.1	-37
2547.81	-39
2548.52	-31
2549.23	-32.5
2549.94	-31
2550.65	-37.5
2551.36	-28.5
2552.07	-35.5
2552.78	-34.5
2553.49	-27
2554.2	-30.5
2554.91	-38
2555.61	-26
2556.32	-35.5
2557.03	-35.5
2557.74	-33.5
2558.45	-53
2559.15	-23
2559.86	-42
2560.57	-43
2561.27	-30
2561.98	-34.5
2562.69	-37
2563.39	-37
2564.1	-20
2564.81	-38.5
2565.51	-44.5
2566.22	-51
2566.92	-35
2567.63	-37.5
2568.33	-33
2569.04	-38
2569.74	-36.5
2570.45	-45
2571.15	-38
2571.86	-29
2572.56	-29
2573.26	-39.5
2573.97	-44
2574.67	-24.5
2575.37	-32.5
2576.08	-31
2576.78	-41
2577.48	-35.5
2578.19	-33.5
2578.89	-34
2579.59	-22
2580.29	-23
2580.99	-34
2581.69	-52
2582.4	-20.5
2583.1	-37
2583.8	-35
2584.5	-21
2585.2	-46.5
2585.9	-48.5
2586.6	-49
2587.3	-26
2588	-37
2588.7	-30
2589.4	-36
2590.1	-30.5
2590.8	-37
2591.5	-34
2592.19	-28
2592.89	-40
2593.59	-40.5
2594.29	-35
2594.99	-25.5
2595.68	-37.5
2596.38	-39.5
2597.08	-43
2597.78	-29.5
2598.47	-31.5
2599.17	-30
2599.87	-50
2600.56	-34
2601.26	-32
2601.96	-41
2602.65	-28
2603.35	-39
2604.04	-26
2604.74	-39
2605.43	-20.5
2606.13	-39.5
2606.82	-34
2607.52	-33
2608.21	-46
2608.91	-33
2609.6	-28
2610.29	-44
2610.99	-39
2611.68	-38
2612.37	-45
2613.07	-32
2613.76	-33.5
2614.45	-28
2615.15	-41
2615.84	-35.5
2616.53	-34
2617.22	-30
2617.91	-34
2618.6	-32.5
2619.3	-42
2619.99	-38
2620.68	-32.5
2621.37	-42
2622.06	-33
2622.75	-31
2623.44	-31.5
2624.13	-36.5
2624.82	-39
2625.51	-29
2626.2	-29
2626.89	-38
2627.58	-42
2628.27	-46
2628.96	-30.5
2629.64	-24
2630.33	-44
2631.02	-34
2631.71	-35.5
2632.4	-26.5
2633.08	-30.5
2633.77	-36.5
2634.46	-41
2635.15	-46
2635.83	-28.5
2636.52	-24.5
2637.21	-34.5
2637.89	-29
2638.58	-27
2639.26	-34
2639.95	-37
2640.64	-35
2641.32	-26
2642.01	-34
2642.69	-56
2643.38	-40
2644.06	-41
2644.75	-35
2645.43	-28
2646.11	-42.5
2646.8	-37
2647.48	-39
2648.16	-30.5
2648.85	-40
2649.53	-46
2650.21	-47
2650.9	-27
2651.58	-31.5
2652.26	-50
2652.94	-25.5
2653.63	-39.5
2654.31	-38.5
2654.99	-33
2655.67	-22.5
2656.35	-39.5
2657.03	-42
2657.71	-35.5
2658.39	-29
2659.08	-29
2659.76	-38
2660.44	-19.5
2661.12	-43
2661.8	-30.5
2662.48	-33
2663.15	-28
2663.83	-36
2664.51	-44
2665.19	-42
2665.87	-34
2666.55	-34
2667.23	-28
2667.91	-35
2668.58	-40
2669.26	-35
2669.94	-47
2670.62	-33
2671.29	-31.5
2671.97	-46
2672.65	-38
2673.32	-43.5
2674	-22
2674.68	-35
2675.35	-25.5
2676.03	-37.5
2676.7	-31
2677.38	-37
2678.06	-42
2678.73	-32
2679.41	-40
2680.08	-18
2680.75	-33
2681.43	-27
2682.1	-27
2682.78	-38
2683.45	-40
2684.12	-14.5
2684.8	-36
2685.47	-36.5
2686.14	-27
2686.82	-28
2687.49	-33
2688.16	-33.5
2688.83	-25
2689.51	-31
2690.18	-45
2690.85	-37.5
2691.52	-21
2692.19	-31
2692.86	-28.5
2693.54	-31.9362
2694.21	-43.6906
2694.88	-28.5359
2695.55	-35.352
2696.22	-37.3176
2696.89	-54.4353
2697.56	-39.5279
2698.23	-27.7819
2698.9	-39.5419
2699.57	-27.0491
2700.24	-22.9629
2700.91	-25.7176
2701.57	-31.7227
2702.24	-31.0441
2702.91	-26.739
2703.58	-23.0009
2704.25	-20.3545
2704.92	-42.0139
2705.58	-31.5456
2706.25	-30.5796
2706.92	-25.2691
2707.58	-29.7849
2708.25	-29.6476
2708.92	-27.5206
2709.59	-35.8802
2710.25	-38.907
2710.92	-38.7691
2711.58	-26.487
2712.25	-24.7373
2712.92	-32.2702
2713.58	-31.9047
2714.25	-25.2904
2714.91	-28.1663
2715.58	-33.2944
2716.24	-27.0388
2716.91	-34.6298
2717.57	-31.0551
2718.23	-29.7596
2718.9	-28.2556
2719.56	-25.243
2720.23	-31.0691
2720.89	-23.7253
2721.55	-25.4257
2722.22	-26.8168
2722.88	-33.474
2723.54	-29.0883
2724.2	-22.2508
2724.87	-34.8692
2725.53	-32.6524
2726.19	-23.3841
2726.85	-26.2045
2727.51	-34.7276
2728.18	-36.6546
2728.84	-22.8914
2729.5	-24.0409
2730.16	-35.7502
2730.82	-30.3588
2731.48	-21.4647
2732.14	-35.834
2732.8	-38.8955
2733.46	-32.4254
2734.12	-29.8668
2734.78	-42.0924
2735.44	-47.3952
2736.1	-23.8636
2736.76	-19.8331
2737.42	-27.6219
2738.07	-28.3892
2738.73	-32.2769
2739.39	-23.938
2740.05	-31.5572
2740.71	-29.3721
2741.37	-19.2793
2742.02	-18.0801
2742.68	-23.3803
2743.34	-28.8518
2743.99	-31.8135
2744.65	-24.9108
2745.31	-24.9071
2745.96	-32.6807
2746.62	-22.3958
2747.28	-19.4415
2747.93	-25.2334
2748.59	-21.8274
2749.24	-18.4668
2749.9	-28.6411
2750.55	-28.9611
2751.21	-25.5701
2751.86	-18.0373
2752.52	-18.9638
2753.17	-30.3688
2753.83	-23.6068
2754.48	-19.0458
2755.14	-27.041
2755.79	-23.2681
2756.44	-21.6344
2757.1	-18.2045
2757.75	-17.1119
2758.4	-21.8838
2759.05	-18.5142
2759.71	-23.7289
2760.36	-31.6434
2761.01	-26.7517
2761.66	-4.98619
2762.32	-18.5464
2762.97	-21.9983
2763.63	-21.5
2764.32	-8
2765.01	-24
2765.69	-31
2766.38	-21.5
2767.07	-25
2767.75	-18
2768.44	-24.5
2769.12	-9
2769.81	-8
2770.49	-23
2771.18	-18
2771.87	-12
2772.55	-21
2773.24	-24
2773.92	-11
2774.6	-27
2775.29	-24
2775.97	-22.5
2776.66	-4.5
2777.34	-15
2778.03	-24
2778.71	-4.5
2779.39	-13.5
2780.08	-27
2780.76	-26
2781.44	-5
2782.12	-16.5
2782.81	-13.5
2783.49	-19.5
2784.17	-13
2784.85	-21
2785.54	-18
2786.22	-15
2786.9	-25
2787.58	-21
2788.26	-23
2788.94	-19
2789.63	-16.5
2790.31	-20
2790.99	-16.5
2791.67	-16
2792.35	-26
2793.03	-34.5
2793.71	-24
2794.39	-5.5
2795.07	-34
2795.75	-25.5
2796.43	-6.5
2797.11	-29
2797.79	-27
2798.46	-19.5
2799.14	-7.5
2799.82	-46
2800.5	-16.5
2801.18	-19
2801.86	-7.5
2802.54	-36
2803.21	-23.5
2803.89	-14.5
2804.57	-21
2805.25	-24.5
2805.92	-24
2806.6	-14
2807.28	-34
2807.95	-23
2808.63	-12
2809.31	-10
2809.98	-19
2810.66	-25
2811.34	-15
2812.01	-21.5
2812.69	-32.5
2813.36	-21
2814.04	-11
2814.71	-18
2815.39	-14
2816.06	-18.5
2816.74	-18
2817.41	-32
2818.09	-20.5
2818.76	-15
2819.44	-15
2820.11	-15.5
2820.78	-23
2821.46	-18
2822.13	-20
2822.8	-21
2823.48	-4.5
2824.15	-9
2824.82	-17
2825.49	-25.5
2826.17	-23
2826.84	-20
2827.51	-22
2828.18	-14
2828.86	-16
2829.53	-34
2830.2	-22
2830.87	-18
2831.54	-25
2832.21	-16
2832.88	-27
2833.55	-6
2834.22	-21
2834.9	-23.5
2835.56	-16.5
2836.23	-27
2836.91	-23
2837.57	-20.5
2838.24	-16
2838.91	-24
2839.58	-38
2840.25	-18
2840.92	-6.5
2841.59	-16
2842.26	-27.5
2842.93	-13
2843.6	-17
2844.26	-22
2844.93	-20
2845.6	-15
2846.27	-18
2846.93	-24
2847.6	-10
2848.27	-12
2848.94	-15
2849.6	-12.5
2850.27	-1
2850.94	5
2851.6	-8.5
2852.27	-24
2852.94	-18
2853.6	-1
2854.27	-22
2854.93	-15
2855.6	2
2856.26	-15
2856.93	-8.5
2857.59	-6
2858.26	-10
2858.92	-19
2859.59	-9
2860.25	-2
2860.92	-9
2861.58	-28
2862.24	-20
2862.91	-15
2863.57	-28
2864.23	-23.5
2864.9	-16
2865.56	-34
2866.22	-36
2866.89	-18.5
2867.55	-16
2868.21	-18
2868.87	-23
2869.54	-11
2870.2	-14
2870.86	-22
2871.52	-32.5
2872.18	-8.5
2872.84	-18
2873.51	-18.5
2874.17	-26.5
2874.83	-13
2875.49	-31
2876.15	-24.5
2876.81	-20.5
2877.47	-15
2878.13	-37
2878.79	-35.5
2879.45	-9.5
2880.11	-23
2880.77	-24
2881.43	-23.5
2882.09	-17.5
2882.75	-15
2883.4	-21.5
2884.06	-14
2884.72	-21
2885.38	-50
2886.04	-29.5
2886.7	-9.5
2887.35	-31
2888.01	-22
2888.67	-26
2889.33	-16
2889.98	-15
2890.64	-32
2891.3	-33
2891.95	-15
2892.61	-35
2893.27	-26
2893.92	-22
2894.58	-15
2895.23	-29
2895.89	-19
2896.55	-33
2897.2	-17
2897.86	-38
2898.51	-18
2899.17	-8.5
2899.82	-33
2900.48	-26.5
2901.13	-9
2901.79	-36
2902.44	-25.5
2903.09	-24
2903.75	-28
2904.4	-43
2905.05	-31
2905.71	-22
2906.36	-15
2907.01	-34
2907.67	-30
2908.32	-20
2908.97	-29
2909.63	-34
2910.28	-28
2910.93	-3
2911.58	-16
2912.23	-29
2912.88	-23
2913.54	-22.5
2914.19	-42.5
2914.84	-25
2915.49	-31
2916.14	-17
2916.79	-45
2917.44	-18.5
2918.09	-17
2918.74	-42
2919.39	-22.5
2920.04	-16.5
2920.69	-11.5
2921.34	-43
2921.99	-45
2922.64	-16.5
2923.29	-14.5
2923.94	-33
2924.59	-28.5
2925.23	-11
2925.88	-27
2926.53	-16.5
2927.18	-12.5
2927.83	-15
2928.48	-39
2929.12	-19.5
2929.77	-32
2930.42	-47
2931.07	-17
2931.71	-20.5
2932.36	-13
2933.01	-25.5
2933.65	-29.5
2934.3	-16.5
2934.95	-17.5
2935.59	-38
2936.24	-27.5
2936.88	-34
2937.53	-20
2938.17	-17
2938.82	-22
2939.46	-24
2940.11	-27
2940.75	-18.5
2941.4	-27.5
2942.04	-57
2942.69	-26.5
2943.33	-29
2943.98	-34
2944.62	-31
2945.26	-32.5
2945.91	-18.5
2946.55	-23
2947.19	-30
2947.84	-24.5
2948.48	-34
2949.12	-17
2949.76	-45.5
2950.41	-25
2951.05	-33
2951.69	-39
2952.33	-24
2952.98	-34
2953.62	-25
2954.26	-41.5
2954.9	-28.5
2955.54	-26
2956.18	-43
2956.82	-23
2957.46	-44.5
2958.1	-42
2958.74	-34.5
2959.38	-27.5
2960.02	-27
2960.66	-31
2961.3	-35
2961.94	-33.5
2962.58	-29
2963.22	-33.5
2963.86	-32.5
2964.5	-41.5
2965.14	-37
2965.78	-45
2966.42	-28.5
2967.05	-30
2967.69	-22
2968.33	-50.5
2968.97	-33
2969.61	-38
2970.24	-37
2970.88	-50.5
2971.52	-24
2972.15	-25
2972.79	-53
2973.43	-30
2974.06	-15.5
2974.7	-39
2975.34	-25.5
2975.97	-34.5
2976.61	-26
2977.24	-33
2977.88	-28
2978.52	-22.5
2979.15	-37
2979.79	-42.5
2980.42	-43
2981.06	-22
2981.69	-31
2982.32	-36
2982.96	-28.5
2983.59	-32
2984.23	-37
2984.86	-40.5
2985.49	-34.5
2986.13	-40
2986.76	-40.5
2987.39	-35
2988.03	-20.5
2988.66	-44
2989.29	-31
2989.93	-34.5
2990.56	-41
2991.19	-29.5
2991.82	-36
2992.45	-33
2993.09	-28
2993.72	-39
2994.35	-27.5
2994.98	-22
2995.61	-42
2996.24	-28.5
2996.87	-40.5
2997.5	-30
2998.14	-32.5
2998.77	-48
2999.4	-35
3000.03	-28
3000.66	-38
3001.29	-31.5
3001.91	-25.5
3002.54	-38
3003.17	-36
3003.8	-28
3004.43	-47
3005.06	-39
3005.69	-36.5
3006.32	-34.5
3006.95	-32
3007.57	-38.5
3008.2	-30
3008.83	-24
3009.46	-38
3010.08	-43
3010.71	-25
3011.34	-49
3011.97	-44
3012.59	-28.5
3013.22	-31.5
3013.85	-22
3014.47	-35
3015.1	-26
3015.72	-27
3016.35	-25.5
3016.98	-30.5
3017.6	-27
3018.23	-36
3018.85	-39
3019.48	-38
3020.1	-26
3020.73	-42
3021.35	-39
3021.98	-28
3022.6	-28
3023.23	-28.5
3023.85	-36.5
3024.47	-17
3025.1	-42
3025.72	-47
3026.34	-24.5
3026.97	-34.5
3027.59	-35
3028.21	-38
3028.84	-41.5
3029.46	-26.5
3030.08	-29.5
3030.7	-37.5
3031.32	-29
3031.95	-25
3032.57	-32.5
3033.19	-27
3033.81	-27
3034.43	-32
3035.05	-37.5
3035.68	-21
3036.3	-38
3036.92	-25
3037.54	-24.5
3038.16	-24
3038.78	-48
3039.4	-33
3040.02	-30.5
3040.64	-31
3041.26	-51
3041.88	-38.5
3042.5	-28
3043.12	-23
3043.73	-40.5
3044.35	-30.5
3044.97	-33.5
3045.59	-64
3046.21	-38.5
3046.83	-36
3047.44	-32
3048.06	-52
3048.68	-24.5
3049.3	-29.5
3049.92	-38
3050.53	-37
3051.15	-32
3051.77	-34
3052.38	-33
3053	-38
3053.62	-35.5
3054.23	-50
3054.85	-37
3055.46	-32.5
3056.08	-28.5
3056.7	-36
3057.31	-38.5
3057.93	-30.5
3058.54	-19.5
3059.16	-38
3059.77	-44
3060.39	-24
3061	-39.5
3061.61	-46
3062.23	-36.5
3062.84	-23.5
3063.46	-20
3064.07	-43
3064.68	-38.5
3065.3	-37
3065.91	-36
3066.52	-38
3067.14	-22.5
3067.75	-29.5
3068.36	-39
3068.98	-43.5
3069.59	-30.5
3070.2	-44
3070.81	-43
3071.42	-31
3072.04	-28.5
3072.65	-33
3073.26	-35.5
3073.87	-30
3074.48	-36
3075.09	-43
3075.7	-32.5
3076.31	-29.5
3076.92	-32.5
3077.53	-35.5
3078.14	-29
3078.75	-39
3079.36	-41
3079.97	-42.5
3080.58	-31.5
3081.19	-34.5
3081.8	-36
3082.41	-41
3083.02	-26
3083.63	-27
3084.24	-43.5
3084.84	-16
3085.45	-39
3086.06	-49
3086.67	-32.5
3087.28	-25.5
3087.88	-38.5
3088.49	-34
3089.1	-34
3089.71	-24
3090.31	-33
3090.92	-41
3091.53	-36
3092.13	-46
3092.74	-48
3093.34	-39.5
3093.95	-25.5
3094.56	-50
3095.16	-35.5
3095.77	-42
3096.37	-24
3096.98	-36
3097.58	-35.5
3098.19	-21.5
3098.79	-36
3099.4	-52
3100	-43.5
3100.61	-21
3101.21	-42
3101.81	-26
3102.42	-37.5
3103.02	-27
3103.63	-33
3104.23	-34.5
3104.83	-26
3105.43	-34.5
3106.04	-48
3106.64	-26.5
3107.24	-24
3107.85	-29.5
3108.45	-36
3109.05	-36
3109.65	-29.5
3110.25	-43
3110.86	-35.5
3111.46	-22
3112.06	-22
3112.66	-54
3113.26	-33.5
3113.86	-21
3114.46	-43
3115.06	-39
3115.66	-30.5
3116.26	-36
3116.86	-42.5
3117.46	-43
3118.06	-22
3118.66	-39
3119.26	-30.5
3119.86	-18.5
3120.46	-22.5
3121.06	-38
3121.66	-43.5
3122.26	-23.5
3122.85	-41
3123.45	-48.5
3124.05	-29
3124.65	-36.5
3125.25	-48
3125.84	-49
3126.44	-26.5
3127.04	-36
3127.64	-36.5
3128.23	-31
3128.83	-26.5
3129.43	-35
3130.02	-32
3130.62	-20.5
3131.22	-26
3131.81	-34
3132.41	-43
3133	-21.5
3133.6	-24
3134.19	-45
3134.79	-30
3135.39	-11.5
3135.98	-38
3136.58	-32.5
3137.17	-39
3137.76	-24
3138.36	-40
3138.95	-35.5
3139.55	-29.5
3140.14	-18.5
3140.73	-43
3141.33	-38.5
3141.92	-25.5
3142.51	-23
3143.11	-37
3143.7	-33
3144.29	-32.5
3144.89	-55
3145.48	-46
3146.07	-27
3146.66	-34.5
3147.26	-41
3147.85	-38.5
3148.44	-29
3149.03	-31.5
3149.62	-44.5
3150.21	-46.5
3150.8	-23
3151.39	-37
3151.99	-47
3152.58	-23.5
3153.17	-22.5
3153.76	-34.5
3154.35	-42
3154.94	-32
3155.53	-27
3156.12	-37.5
3156.71	-41.5
3157.29	-27.5
3157.88	-35
3158.47	-45
3159.06	-31
3159.65	-41
3160.24	-29
3160.83	-28
3161.42	-30
3162	-40
3162.59	-44.5
3163.18	-42.5
3163.77	-32.5
3164.35	-32
3164.94	-42
3165.53	-26.5
3166.12	-38.5
3166.7	-44
3167.29	-37
3167.88	-28.5
3168.46	-33
3169.05	-36
3169.64	-46
3170.22	-40
3170.81	-32
3171.39	-45
3171.98	-15.5
3172.56	-35
3173.15	-48.5
3173.73	-37
3174.32	-35
3174.9	-37
3175.49	-32.5
3176.07	-40.5
3176.65	-22
3177.24	-50
3177.82	-37.5
3178.41	-26.5
3178.99	-23.5
3179.57	-45
3180.16	-33
3180.74	-30
3181.32	-23.5
3181.91	-44
3182.49	-28
3183.07	-24
3183.65	-45.5
3184.23	-34.5
3184.82	-23
3185.4	-46
3185.98	-32.5
3186.56	-32.5
3187.14	-27
3187.72	-49.5
3188.3	-28.5
3188.89	-19.5
3189.47	-17
3190.05	-33
3190.63	-40
3191.21	-32
3191.79	-40
3192.37	-43.5
3192.95	-38
3193.53	-32
3194.11	-49.5
3194.69	-45.5
3195.26	-22
3195.84	-45
3196.42	-39.5
3197	-36.5
3197.58	-30
3198.16	-32
3198.74	-51
3199.31	-30.5
3199.89	-34
