100.582	327
101.867	322
103.152	320
104.437	350
105.721	320.5
107.004	322
108.287	294.5
109.571	313
110.853	278
112.136	284
113.418	286
114.7	297
115.981	276
117.262	268.5
118.543	274
119.823	272.5
121.103	274
122.383	258
123.663	272
124.942	256.5
126.221	258
127.499	265.5
128.777	278
130.056	237
131.333	253
132.61	241
133.887	245
135.163	239
136.439	218
137.715	234.5
138.992	226.5
140.267	196
141.541	232
142.816	225
144.09	187
145.364	205.5
146.637	196
147.911	190.5
149.184	188.5
150.457	187
151.729	216
153.001	198.5
154.273	194
155.544	171
156.815	193
158.086	176
159.356	161
160.626	192.5
161.896	165.5
163.165	158
164.434	161
165.703	166.5
166.971	165
168.24	165
169.507	151.5
170.774	136.5
172.042	112
173.309	138
174.575	146.5
175.841	133.5
177.107	114
178.373	148
179.637	132.5
180.902	120
182.167	123
183.431	138.5
184.695	120.5
185.958	108
187.222	112
188.485	121
189.747	100
191.009	91
192.272	94
193.534	118
194.795	114
196.055	107
197.316	118
198.577	120.5
199.837	118
201.096	105
202.356	132.5
203.615	113
204.873	79
206.132	119
207.39	114.5
208.648	108
209.905	108.5
211.162	105.5
212.419	93
213.675	96
214.932	122.5
216.187	102.5
217.443	95.5
218.697	96
219.953	94.5
221.207	81.5
222.462	98
223.715	91
224.969	95
226.222	98
227.475	79
228.727	101
229.98	97.5
231.232	98.5
232.483	77
233.734	83
234.986	84.5
236.236	89.5
237.486	92
238.737	99
239.986	87.5
241.235	110.5
242.484	106
243.733	135
244.981	128.5
246.229	176.5
247.477	167
248.725	194.5
249.971	189
251.219	189.5
252.465	182
253.711	125
254.957	99
256.203	114
257.448	112.5
258.693	112
259.937	127
261.181	114.5
262.425	93.5
263.669	90
264.912	99.5
266.155	94.5
267.398	105
268.64	84
269.881	85
271.123	95.5
272.364	81.5
273.605	83
274.846	93.5
276.086	82.5
277.326	75
278.566	68
279.806	80
281.045	69
282.283	68.5
283.522	85
284.76	77.5
285.998	68
287.235	71
288.473	72
289.71	70
290.946	67
292.182	72
293.418	71.5
294.654	78
295.888	51
297.123	70.5
298.358	69
299.592	73
300.826	74
302.06	74
303.293	63
304.526	56
305.759	61
306.991	68.5
308.223	53
309.455	51
310.687	54
311.917	64
313.148	51
314.379	52
315.609	62
316.839	58
318.068	50
319.297	51.5
320.526	56.5
321.754	49
322.982	40
324.21	51
325.438	59.5
326.665	54
327.892	46
329.118	54.5
330.345	53
331.571	41
332.797	69
334.022	64.5
335.247	42
336.471	29
337.696	46
338.92	58
340.144	36.5
341.367	37
342.591	52
343.813	48
345.036	45
346.257	59
347.48	50.5
348.701	28
349.922	45
351.143	39
352.363	59
353.583	40
354.803	58
356.023	44
357.243	40
358.462	35
359.68	42.5
360.899	43
362.117	42.5
363.334	11
364.551	49.5
365.769	41.5
366.986	37
368.202	32
369.418	50
370.633	41
371.849	57
373.065	50
374.279	58
375.494	30
376.708	45
377.921	47
379.136	43
380.349	41
381.562	35.5
382.774	23.5
383.987	28
385.198	25
386.41	34
387.621	32.5
388.832	23
390.043	42
391.253	31
392.463	24
393.674	33
394.883	39
396.092	32.5
397.301	31
398.509	38.5
399.717	39
400.925	44
402.133	33
403.34	37
404.547	36
405.753	38
406.96	14.5
408.165	33
409.371	22
410.576	26
411.781	29
412.986	39.5
414.191	32
415.394	13
416.598	25
417.802	36
419.005	32.5
420.208	31.5
421.41	29
422.613	18
423.815	13
425.016	34
426.217	37.5
427.418	39.5
428.619	27
429.818	10
431.019	17
432.218	33
433.418	24
434.617	27
435.815	22.5
437.014	32.5
438.212	9
439.41	21.5
440.607	33
441.805	15
443.001	23
444.198	25
445.394	18
446.59	4.5
447.785	40.5
448.98	20
450.175	5.5
451.37	27
452.564	12.5
453.758	26
454.952	23
456.145	31
457.339	14.5
458.531	19
459.724	10.5
460.916	30
462.107	21.5
463.299	23.5
464.49	14
465.681	30
466.871	24
468.062	22.5
469.252	24
470.441	12
471.631	22
472.819	13.5
474.008	19.5
475.196	8.5
476.385	7
477.572	14.5
478.76	20.5
479.946	14.5
481.133	-6
482.32	17.5
483.506	1.5
484.692	6
485.877	5
487.063	33
488.247	16.5
489.432	-2
490.616	17.5
491.8	22.5
492.984	14
494.167	18
495.35	11
496.533	10
497.715	-2
498.897	4.5
500.079	7
501.26	19
502.441	16.5
503.622	18
504.803	14
505.983	23
507.163	7.5
508.342	5
509.522	13.5
510.701	14.5
511.88	1
513.058	9.5
514.236	8
515.413	0
516.591	16
517.768	15.5
518.945	14
520.121	-22
521.297	11.5
522.473	7.5
523.648	3
524.823	16.5
525.998	10.5
527.173	3
528.348	12.5
529.522	16
530.694	14
531.868	6
533.041	-10
534.214	8
535.386	8
536.558	-1
537.731	-9
538.902	14.5
540.073	4
541.244	4.5
542.414	6.5
543.585	7.5
544.754	2.5
545.924	-4
547.094	7
548.262	11.5
549.431	3
550.6	10
551.767	5.5
552.935	12
554.103	2
555.27	-1
556.436	6
557.603	-7
558.769	2
559.935	3
561.1	8
562.266	-9
563.431	10
564.595	6
565.759	4.5
566.924	9
568.087	9
569.25	-2
570.414	4.5
571.576	-14
572.739	-17
573.901	2
575.062	24.5
576.224	-32
577.385	9
578.546	5
579.707	-1
580.867	-2.5
582.028	-8
583.187	24
584.347	-12
585.505	-8.5
586.664	3
587.822	5
588.98	12
590.138	8.5
591.296	6
592.453	-7
593.61	11.5
594.767	-8
595.922	0
597.079	-2
598.234	-2.5
599.39	9
600.544	4
601.699	8
602.854	11
604.008	-5.5
605.161	4
606.315	4.5
607.468	-7.5
608.621	3.5
609.774	3
610.926	16
612.078	-5
613.229	-3
614.381	5.5
615.532	-0.5
616.682	1.5
617.833	2.5
618.983	9.5
620.133	2
621.282	6
622.431	-10.5
623.58	-3
624.729	2
625.877	9
627.025	-1
628.172	2.5
629.32	0
630.467	-17
631.614	4.5
632.76	-10
633.906	-3.5
635.052	-6
636.197	-0.5
637.343	-5.5
638.488	-3
639.632	2.5
640.776	-2.5
641.92	-1.5
643.064	9
644.207	7.5
645.35	-11.5
646.493	-1.5
647.635	-11
648.777	-12
649.919	-0.5
651.06	-24
652.202	1
653.342	0
654.483	-6
655.624	-11
656.764	1
657.903	-4
659.043	-18
660.181	-11.5
661.32	-3.5
662.459	-10
663.596	-15
664.735	-4
665.872	-10
667.009	-16
668.146	-19
669.282	2
670.419	-4
671.555	3.5
672.69	-17.5
673.826	-6.5
674.96	-14
676.096	-10
677.23	-16
678.364	-11.5
679.498	-11
680.631	-11.5
681.765	4
682.897	-10
684.03	-3
685.163	-2
686.294	7
687.426	-2.5
688.557	-14
689.689	-7.5
690.819	-4.5
691.949	-1.5
693.079	-1
694.21	-5.5
695.339	2.5
696.468	11
697.597	-5
698.725	9
699.854	1
700.982	8.5
702.11	2.5
703.237	6.5
704.364	-12
705.491	23
706.617	7.5
707.744	-6
708.87	11
709.995	6.5
711.12	-0.5
712.245	-7.5
713.37	-1
714.495	4.5
715.618	3
716.742	-1
717.865	15.5
718.989	1.5
720.112	-5
721.234	-1.5
722.356	14.5
723.478	9
724.6	-3
725.721	12.5
726.842	3
727.962	2
729.083	-14
730.203	0
731.323	8
732.442	0.5
733.562	6
734.681	2.5
735.799	0
736.917	-17.5
738.036	7
739.153	5
740.27	-2.5
741.387	-14
742.505	-6
743.62	-13.5
744.736	-0.5
745.853	-10
746.968	-2.5
748.083	1
749.199	-4
750.313	5
751.427	-0.5
752.541	5.5
753.655	-14
754.768	12
755.882	-15
756.994	-8
758.107	2
759.219	6
760.331	-14
761.443	-7
762.554	-1.5
763.665	1.5
764.776	-3
765.885	-11
766.996	6
768.106	13
769.215	-9
770.324	3
771.434	-6
772.542	2
773.65	-2.5
774.758	5
775.865	-1
776.973	2
778.081	-2.5
779.187	-6.5
780.293	-9.5
781.399	-7
782.506	6
783.611	-5.5
784.716	-15
785.821	-10
786.926	-4
788.03	5.5
789.134	-2.5
790.238	-2
791.341	-2.5
792.444	-9
793.547	-19
794.65	8
795.752	-4.5
796.854	-0.5
797.956	-10
799.057	-14
800.158	4
801.259	-1
802.359	-8
803.459	4.5
804.559	8
805.659	-8.5
806.758	-9
807.857	-6.5
808.955	-2
810.053	2
811.152	9
812.25	-5.5
813.347	0
814.444	-9
815.541	-3
816.638	7.5
817.733	-5
818.83	2
819.925	15.5
821.02	0
822.115	7
823.21	3.5
824.305	13.5
825.398	-4
826.492	15
827.586	18.5
828.679	27.5
829.772	9.5
830.865	23
831.957	13.5
833.049	26
834.141	9.5
835.232	22.5
836.323	26.5
837.414	12.5
838.505	9
839.595	40.5
840.685	29
841.774	12.5
842.864	39.5
843.952	27.5
845.041	17
846.129	22
847.218	32
848.306	25.75
849.393	19.5
850.48	17.5
851.567	47.5
852.654	26
853.74	15.5
854.826	25.5
855.912	11.5
856.997	-4
858.082	22.5
859.167	24.5
860.252	14.5
861.336	23
862.42	21.5
863.504	19.5
864.587	27
865.67	12.5
866.753	24
867.835	22.5
868.917	20.5
869.999	20.5
871.081	23.5
872.162	29.5
873.243	5
874.323	17
875.404	26.5
876.484	28.5
877.564	15.5
878.643	18.5
879.722	16.5
880.802	11.5
881.88	16
882.958	30.5
884.036	4
885.113	0
886.191	22
887.268	4
888.344	22.5
889.421	6.5
890.498	25
891.573	7
892.649	7
893.724	-6
894.799	11
895.874	14.5
896.948	5
898.022	21
899.096	24.5
900.17	10
901.243	17.5
902.315	19
903.389	15
904.461	5
905.533	-7.5
906.605	19.5
907.676	10.5
908.747	10
909.818	9
910.888	21.5
911.958	11
913.028	6
914.098	7.5
915.167	29
916.237	8.5
917.306	-1
918.374	10
919.442	9
920.51	6
921.577	16
922.644	10
923.711	7.5
924.778	17.5
925.845	-4.5
926.911	1.5
927.977	3.5
929.042	14
930.107	13
931.173	12
932.237	-6
933.301	3.5
934.365	27
935.429	13.5
936.492	-6
937.556	18
938.619	20
939.681	-12.5
940.743	7
941.805	16.5
942.867	11
943.928	5
944.989	12.5
946.05	19
947.11	10
948.17	4.5
949.23	7.5
950.29	7
951.349	-1
952.409	11.5
953.467	5
954.526	13
955.584	5
956.641	3
957.699	1.5
958.756	-8
959.813	2
960.869	10
961.926	7
962.982	-23
964.038	22
965.094	16
966.149	12.5
967.204	11
968.258	18
969.312	13.5
970.366	5.5
971.42	10
972.473	16
973.527	7
974.58	-1
975.631	12
976.684	-1
977.736	5
978.787	11
979.839	7
980.89	-4.5
981.94	-9
982.991	4.5
984.041	10.5
985.091	-1
986.141	-12
987.19	16.5
988.239	-22
989.288	-9
990.336	2
991.384	-12
992.432	7
993.48	-9
994.527	0
995.574	5
996.62	-11
997.666	-18
998.713	15
999.759	7.5
1000.8	-12.5
1001.85	0
1002.89	3
1003.94	-4.5
1004.98	3
1006.03	2
1007.07	9.5
1008.11	-10
1009.16	-19
1010.2	2.5
1011.24	8
1012.29	-10
1013.33	-9
1014.37	5
1015.41	5
1016.45	3
1017.49	-7
1018.53	-4
1019.57	-2
1020.61	-18
1021.65	6.5
1022.69	9.5
1023.73	-4
1024.77	8.5
1025.81	-2
1026.85	-8
1027.88	2.5
1028.92	-13.5
1029.96	-6
1031	3
1032.03	-4
1033.07	-3
1034.1	12
1035.14	-9.5
1036.18	-17
1037.21	-6
1038.25	-2
1039.28	-9
1040.32	3
1041.35	-4.5
1042.38	4
1043.42	-19
1044.45	5
1045.48	0.5
1046.52	-19
1047.55	2
1048.58	-9
1049.61	14
1050.64	-10.5
1051.67	-2.5
1052.71	2
1053.74	-3
1054.77	-3
1055.8	17.5
1056.83	6.5
1057.85	-11
1058.88	10.5
1059.91	16
1060.94	19
1061.97	28
1063	24
1064.03	16
1065.05	6
1066.08	1
1067.11	7.5
1068.13	6
1069.16	-6.5
1070.19	17
1071.21	10.5
1072.24	7.5
1073.26	18.5
1074.29	19.5
1075.31	10.5
1076.34	7
1077.36	8
1078.38	23
1079.41	1
1080.43	11
1081.45	13
1082.47	25
1083.5	9
1084.52	9.5
1085.54	20
1086.56	11.5
1087.58	3.5
1088.6	14.5
1089.62	-0.5
1090.64	5
1091.66	-7
1092.68	9.5
1093.7	-6
1094.72	9
1095.74	1
1096.76	10.5
1097.78	0
1098.79	-5.5
1099.81	3.5
1100.83	0
1101.85	1.5
1102.86	6
1103.88	9
1104.9	-7.5
1105.91	-7
1106.93	-2
1107.94	-7.5
1108.96	-16.5
1109.97	-7
1110.99	-2
1112	10.5
1113.01	-0.5
1114.03	-16
1115.04	-1
1116.05	11
1117.07	3
1118.08	-5
1119.09	-14
1120.1	-2
1121.11	-10.5
1122.13	2
1123.14	-6.5
1124.15	-4
1125.16	-18
1126.17	-16
1127.18	-11.5
1128.19	-14
1129.2	-4.5
1130.2	-10
1131.21	-12.5
1132.22	-28
1133.23	-11
1134.24	2.5
1135.25	-16
1136.25	-17.5
1137.26	-12
1138.27	-11.5
1139.27	-20
1140.28	-12
1141.28	2
1142.29	-11.5
1143.29	-23
1144.3	-9.5
1145.3	-4
1146.31	-13.5
1147.31	-29.5
1148.32	-30
1149.32	-14.9048
1150.32	-17.8321
1151.33	-16.2681
1152.33	0.645087
1153.33	-16.2462
1154.33	-23.6853
1155.33	-7.89341
1156.34	-5.45421
1157.34	-19.3822
1158.34	-8.91698
1159.34	-19.8303
1160.34	-12.1413
1161.34	-16.6173
1162.34	-6.58596
1163.34	-5.22831
1164.34	-14.3355
1165.34	-33.8016
1166.33	-16.6509
1167.33	-16.5008
1168.33	-16.3719
1169.33	-16.5388
1170.33	-15.2553
1171.32	-9.9759
1172.32	-18.6652
1173.32	-7.14926
1174.31	-17.7877
1175.31	2.6983
1176.31	-8.60945
1177.3	-9.52769
1178.3	-4.85066
1179.29	-18.1219
1180.29	-17.101
1181.28	-4.61323
1182.27	-14.2786
1183.27	-6.8284
1184.26	-2.00556
1185.25	-12.9325
1186.25	-8.26296
1187.24	-8.29286
1188.23	-14.7041
1189.22	-8.63883
1190.22	-7.18536
1191.21	-15.0187
1192.2	-12.5646
1193.19	-11.722
1194.18	-13.1488
1195.17	-7.03453
1196.16	-7.73456
1197.15	-3.82971
1198.14	-15.5543
1199.13	-11.6775
1200.12	-7.72619
1201.11	-9.91117
1202.09	0.71332
1203.08	-11.6027
1204.07	-13.137
1205.06	-9.64268
1206.04	-8.92422
1207.03	-4.50572
1208.02	-16.2901
1209	2.53416
1209.99	-29.0664
1210.98	-16.2968
1211.96	-14.7238
1212.95	-7.66775
1213.93	-3.37619
1214.92	-10.7164
1215.9	-18.3541
1216.89	-8.40255
1217.87	-0.876781
1218.85	-4.38436
1219.84	-8.4338
1220.82	-5.03271
1221.8	-7.19586
1222.78	-1.45668
1223.77	-1.33369
1224.75	-7.03269
1225.73	-4.52044
1226.71	0.37381
1227.69	4.80243
1228.67	-0.878026
1229.65	-2.59882
1230.63	-7.17923
1231.61	3.13351
1232.59	-11.697
1233.57	-3.2995
1234.55	-0.175615
1235.53	-12.3808
1236.51	1.81633
1237.49	1.40675
1238.46	2.59348
1239.44	-1.87814
1240.42	5.17894
1241.4	9.49688
1242.37	20.8317
1243.35	5.69102
1244.32	2.6207
1245.3	11.7913
1246.28	17.2113
1247.25	17.0847
1248.23	16.8172
1249.2	10.6332
1250.18	3.60435
1251.15	9.66999
1252.12	15.9135
1252.72	13
1253.73	17
1254.74	22
1255.75	28.5
1256.75	35
1257.76	25
1258.77	25.5
1259.78	27
1260.79	33.5
1261.79	29
1262.8	34
1263.81	40.5
1264.81	39
1265.82	26
1266.82	33.5
1267.83	31
1268.83	10
1269.84	34.5
1270.84	33.5
1271.85	19
1272.85	34
1273.86	21
1274.86	22
1275.86	9
1276.87	19
1277.87	18.5
1278.87	20.5
1279.88	20
1280.88	28
1281.88	15
1282.88	11
1283.88	14.5
1284.88	22
1285.88	34.5
1286.89	22
1287.89	7
1288.89	9
1289.89	4
1290.89	19
1291.89	20
1292.88	31.5
1293.88	37
1294.88	32
1295.88	31.5
1296.88	39
1297.88	29
1298.88	43.5
1299.87	30.5
1300.87	51
1301.87	32.5
1302.86	37.5
1303.86	31
1304.86	20
1305.85	25
1306.85	8
1307.85	31
1308.84	20.5
1309.84	16
1310.83	8
1311.83	13
1312.82	11
1313.81	5
1314.81	16.5
1315.8	10
1316.8	22
1317.79	-6
1318.78	14.5
1319.77	18
1320.77	11
1321.76	7
1322.75	1
1323.74	8
1324.73	-1
1325.72	6.5
1326.72	3
1327.71	-30
1328.7	-14
1329.69	-1.5
1330.68	-3
1331.67	-10.5
1332.66	-2
1333.65	10.5
1334.63	-12
1335.62	5.5
1336.61	-0.5
1337.6	-2
1338.59	2
1339.58	4.5
1340.56	-1
1341.55	-9
1342.54	-9
1343.53	4
1344.51	6.5
1345.5	-4
1346.48	-1
1347.47	-1.5
1348.45	-24
1349.44	-7
1350.43	-12.5
1351.41	6.5
1352.4	4
1353.38	2
1354.36	-8.5
1355.35	4
1356.33	-14
1357.31	-2
1358.3	0.5
1359.28	-23
1360.26	-15
1361.25	-9
1362.23	0
1363.21	-10
1364.19	-0.5
1365.17	-12.5
1366.15	-28
1367.14	-28
1368.12	-20
1369.1	-14
1370.08	-17
1371.06	-6.5
1372.04	-13
1373.02	4.5
1373.99	-3
1374.97	-16.5
1375.95	-9
1376.93	0
1377.91	-19
1378.89	-23
1379.86	-1.5
1380.84	-5
1381.82	-10.5
1382.8	-16
1383.77	-25
1384.75	-12
1385.73	-15
1386.7	-16
1387.68	-7
1388.65	-9
1389.63	-17.5
1390.6	-12
1391.58	-24
1392.55	-11.5
1393.53	-14.5
1394.5	-5
1395.48	-12
1396.45	-15.5
1397.42	-6.5
1398.4	-10
1399.37	-3
1400.34	-23
1401.31	-21
1402.29	-34
1403.26	-13.5
1404.23	-23
1405.2	-8
1406.17	-17
1407.14	-14
1408.11	-5.5
1409.08	-4.5
1410.05	-26
1411.02	-4
1411.99	-9
1412.96	-16
1413.93	-18.5
1414.9	-16.5
1415.87	-0.5
1416.84	-10
1417.81	0
1418.78	-1.5
1419.74	-15
1420.71	-4.5
1421.68	-14.5
1422.65	9
1423.61	-10
1424.58	-7.5
1425.55	-5.5
1426.51	-3
1427.48	9
1428.44	2.5
1429.41	18
1430.37	6
1431.34	13.5
1432.3	21
1433.27	30
1434.23	24.5
1435.2	26.5
1436.16	37
1437.12	22
1438.09	49.5
1439.05	34.5
1440.01	37
1440.97	33
1441.94	17
1442.9	21
1443.86	25
1444.82	19
1445.78	14
1446.74	14
1447.7	24
1448.67	16
1449.63	19
1450.59	21
1451.55	27
1452.5	16
1453.46	6.5
1454.42	11
1455.38	12
1456.34	14.5
1457.3	16.5
1458.26	16
1459.21	3
1460.17	3.5
1461.13	6
1462.09	-11
1463.04	-7.5
1464	5
1464.96	-10
1465.91	-12
1466.87	5
1467.82	-4
1468.78	-16
1469.73	-11
1470.69	-1
1471.64	-3
1472.6	-13
1473.55	-16
1474.51	-3.5
1475.46	-16.5
1476.41	-29
1477.37	-28.5
1478.32	4
1479.27	-53
1480.23	-33.5
1481.18	-23.5
1482.13	-3.5
1483.08	-23
1484.03	-25
1484.98	-8
1485.94	-20
1486.89	-28
1487.84	-19
1488.79	-14
1489.74	-10
1490.69	-31
1491.64	-16
1492.59	-19
1493.54	-29
1494.48	-33.5
1495.43	-17.5
1496.38	-22.5
1497.33	-28.5
1498.28	-27
1499.23	-21
1500.17	-21
1501.12	-18
1502.07	-22.5
1503.01	-19
1503.96	-30
1504.91	-21.5
1505.85	-15.5
1506.8	-26
1507.74	-30
1508.69	-26
1509.64	-31
1510.58	-27
1511.52	-33
1512.47	-13.5
1513.41	-20
1514.36	-18.5
1515.3	-32.5
1516.24	-43
1517.19	-26
1518.13	-31
1519.07	-28.5
1520.01	-14
1520.96	-21.5
1521.9	-12
1522.84	-13.5
1523.78	-15
1524.72	-27
1525.66	-24
1526.6	-23
1527.55	-21.5
1528.49	-37
1529.43	-31.5
1530.37	-13.5
1531.3	-44
1532.24	-25.5
1533.18	-13.5
1534.12	-26
1535.06	-26
1536	-34
1536.94	-18
1537.88	-24
1538.81	-37
1539.75	-29.5
1540.69	-41
1541.62	-25
1542.56	-20.5
1543.5	-17
1544.43	-26
1545.37	-34
1546.3	-22.5
1547.24	-14.5
1548.18	-31
1549.11	-30
1550.05	-18.5
1550.98	-32
1551.91	-31
1552.85	-42
1553.78	-13
1554.72	-20.5
1555.65	-18.5
1556.58	-27.5
1557.51	-18
1558.45	-30
1559.38	-42
1560.31	-32.5
1561.24	-19
1562.17	-25.5
1563.11	-29
1564.04	-15
1564.97	-30
1565.9	-28.5
1566.83	-27.5
1567.76	-12.5
1568.69	-35
1569.62	-24.5
1570.55	-29
1571.48	-27
1572.41	-33
1573.34	-17.5
1574.26	-21
1575.19	-25
1576.12	-23.5
1577.05	-33.5
1577.98	-14.5
1578.9	-34.5
1579.83	-29
1580.76	-24.5
1581.68	-19
1582.61	-26.5
1583.54	-15.5
1584.46	-23
1585.39	-26
1586.31	-20
1587.24	-33.5
1588.16	-38
1589.09	-38
1590.01	-26
1590.94	-27.5
1591.86	-24
1592.78	-25
1593.71	-25
1594.63	-18
1595.55	-25
1596.48	-20.5
1597.4	-26
1598.32	-23
1599.24	-27.5
1600.17	-23.5
1601.09	-24
1602.01	-12
1602.93	-26.5
1603.85	-22
1604.77	-16
1605.69	-29
1606.61	-29
1607.53	-35.5
1608.45	-9.5
1609.37	-27
1610.29	-42.5
1611.21	-31
1612.13	-31
1613.05	-31
1613.96	-31
1614.88	-35
1615.8	-26.5
1616.72	-32
1617.63	-42.5
1618.55	-13
1619.47	-42
1620.38	-29
1621.3	-22.5
1622.22	-28
1623.13	-40
1624.05	-39
1624.96	-35
1625.88	-17.5
1626.79	-23.5
1627.71	-17.5
1628.62	-13.5
1629.54	-32.5
1630.45	-28.5
1631.37	-4.5
1632.28	-25
1633.19	-31.5
1634.1	-16.5
1635.02	-14.5
1635.93	-35
1636.84	-13
1637.75	-13
1638.67	-7
1639.58	-29
1640.49	-36
1641.4	-9
1642.31	-19
1643.22	-5.5
1644.13	-11.5
1645.04	-2
1645.95	-3
1646.86	-10.5
1647.77	-8
1648.68	10
1649.59	1.5
1650.5	-6.5
1651.41	11
1652.31	24
1653.22	17.5
1654.13	20.5
1655.04	31
1655.95	19
1656.85	27
1657.76	16.5
1658.67	26
1659.57	5.5
1660.48	2
1661.38	17
1662.29	15
1663.2	4.5
1664.1	-3
1665.01	-3.5
1665.91	-22
1666.81	-19
1667.72	-15
1668.62	-20
1669.53	-28
1670.43	-35
1671.33	-24.5
1672.24	-26
1673.14	-17.5
1674.04	-18
1674.94	-17.5
1675.85	-31
1676.75	-33.5
1677.65	-22
1678.55	-22
1679.45	-30
1680.35	-32.5
1681.25	-31
1682.15	-31
1683.05	-28.5
1683.95	-23
1684.85	-34
1685.75	-44.5
1686.65	-43
1687.55	-14
1688.45	-9.5
1689.35	-26.5
1690.25	-20.5
1691.15	-26
1692.04	-21
1692.94	-29
1693.84	-21
1694.74	-35
1695.63	-23.5
1696.53	-31.5
1697.43	-27
1698.32	-22
1699.22	-37.5
1700.11	-30.5
1701.01	-19
1701.9	-20.5
1702.8	-31.5
1703.69	-31
1704.59	-20
1705.48	-31
1706.38	-36
1707.27	-22
1708.16	-20.5
1709.06	-36.5
1709.95	-36.5
1710.84	-37
1711.74	-55
1712.63	-40
1713.52	-10.5
1714.41	-37
1715.3	-37
1716.2	-37
1717.09	-29
1717.98	-22
1718.87	-25
1719.76	-21
1720.65	-40
1721.54	-43
1722.43	-28.5
1723.32	-29
1724.21	-21
1725.1	-28.5
1725.99	-37
1726.88	-23
1727.76	-29
1728.65	-25.5
1729.54	-26.5
1730.43	-24
1731.31	-24.5
1732.2	-20
1733.09	-15
1733.98	-43
1734.86	-23
1735.75	-24.5
1736.63	-25
1737.52	-24
1738.41	-26
1739.29	-33.5
1740.18	-24
1741.06	-35
1741.95	-18
1742.83	-13
1743.72	-23
1744.6	-20.5
1745.48	-17
1746.37	-22.5
1747.25	-19
1748.13	-22.5
1749.02	-31.5
1749.9	-23
1750.78	-25.5
1751.66	-25
1752.54	-28
1753.43	-26
1754.31	-26
1755.19	-40.5
1756.07	-27
1756.95	-27
1757.83	-27.5
1758.71	-20
1759.59	-25
1760.47	-32.5
1761.35	-35
1762.23	-16
1763.11	-27.5
1763.99	-18.5
1764.87	-22.5
1765.74	-13
1766.62	-30.5
1767.5	-29.5
1768.38	-26
1769.25	-23.5
1770.13	-29
1771.01	-27.5
1771.89	-39
1772.76	-31.5
1773.64	-31
1774.51	-13
1775.39	-27
1776.27	-19
1777.14	-31
1778.02	-23
1778.89	-35
1779.76	-34
1780.64	-40
1781.51	-17.5
1782.39	-28
1783.26	-36.5
1784.13	-25.5
1785.01	-46
1785.88	-28
1786.75	-33.5
1787.63	-37
1788.5	-35
1789.37	-31
1790.24	-36
1791.11	-28
1791.98	-35
1792.86	-31.5
1793.73	-31
1794.6	-38
1795.47	-36
1796.34	-33
1797.21	-23
1798.08	-42
1798.95	-28
1799.82	-34
1800.68	-26
1801.55	-43
1802.42	-39.5
1803.29	-38
1804.16	-27
1805.03	-20.5
1805.89	-34.5
1806.76	-38.5
1807.63	-32
1808.49	-44.5
1809.36	-41.5
1810.23	-18
1811.09	-35
1811.96	-42.5
1812.83	-32.5
1813.69	-40
1814.56	-31.5
1815.42	-46
1816.29	-25
1817.15	-31
1818.02	-32
1818.88	-29.5
1819.74	-9
1820.61	-33
1821.47	-40.5
1822.33	-20.5
1823.2	-34
1824.06	-37
1824.92	-29
1825.78	-24
1826.65	-40
1827.51	-25.5
1828.37	-40
1829.23	-26.5
1830.09	-24.5
1830.95	-28
1831.81	-23
1832.67	-26
1833.53	-32
1834.39	-35.5
1835.25	-32
1836.11	-43
1836.97	-31
1837.83	-21.5
1838.69	-27
1839.55	-34
1840.41	-32
1841.26	-19
1842.12	-37
1842.98	-35.5
1843.84	-27.5
1844.69	-44
1845.55	-24.5
1846.41	-36.5
1847.26	-37
1848.12	-34
1848.98	-22
1849.83	-28.5
1850.69	-20.5
1851.54	-29
1852.4	-31
1853.25	-27
1854.11	-43
1854.96	-23
1855.82	-23.5
1856.67	-26
1857.52	-37
1858.38	-30
1859.23	-31
1860.08	-21
1860.93	-23.5
1861.79	-45
1862.64	-42
1863.49	-36
1864.34	-31
1865.19	-36
1866.05	-21
1866.9	-16.5
1867.75	-31
1868.6	-25.5
1869.45	-12
1870.3	-31
1871.15	-26.5
1872	-24.5
1872.85	-47
1873.7	-30
1874.55	-35
1875.4	-22
1876.24	-48
1877.09	-34
1877.94	-31
1878.79	-13
1879.64	-41
1880.48	-29
1881.33	-20.5
1882.18	-39
1883.02	-16
1883.87	-33
1884.72	-33
1885.56	-34.5
1886.41	-27
1887.25	-23.5
1888.1	-14
1888.94	-29
1889.79	-29
1890.63	-35.5
1891.48	-56
1892.32	-36.5
1893.17	-28
1894.01	-28
1894.85	-29
1895.7	-27.5
1896.54	-32.5
1897.38	-40
1898.23	-34
1899.07	-33
1899.91	-23
1900.75	-51
1901.59	-32
1902.44	-34.5
1903.28	-32.5
1904.12	-34.5
1904.96	-27
1905.8	-32.5
1906.64	-36
1907.48	-36
1908.32	-28.5
1909.16	-22
1910	-44
1910.84	-30
1911.68	-34.5
1912.51	-33
1913.35	-24.5
1914.19	-40.5
1915.03	-25
1915.87	-15.5
1916.7	-34.5
1917.54	-39.5
1918.38	-19
1919.21	-44
1920.05	-31
1920.89	-33.5
1921.72	-29
1922.56	-29
1923.4	-31.5
1924.23	-29.5
1925.07	-29
1925.9	-30
1926.74	-12.5
1927.57	-29
1928.41	-29
1929.24	-34.5
1930.07	-27
1930.91	-32
1931.74	-45
1932.57	-26
1933.41	-31
1934.24	-39.5
1935.07	-44
1935.9	-32.5
1936.74	-39
1937.57	-19.5
1938.4	-20.5
1939.23	-36
1940.06	-20
1940.89	-28
1941.72	-35
1942.55	-21.5
1943.38	-29
1944.21	-40.5
1945.04	-39
1945.87	-25
1946.7	-35
1947.53	-23.5
1948.36	-27.5
1949.19	-20
1950.02	-37
1950.84	-41
1951.67	-26
1952.5	-34
1953.33	-40
1954.15	-21
1954.98	-39
1955.81	-53
1956.64	-30
1957.46	-27
1958.29	-25
1959.11	-34
1959.94	-41
1960.76	-23
1961.59	-31.5
1962.41	-39
1963.24	-30.5
1964.06	-13
1964.89	-40
1965.71	-34
1966.53	-29
1967.36	-46
1968.18	-31
1969	-23
1969.83	-23.5
1970.65	-37
1971.47	-30
1972.3	-38
1973.12	-27
1973.94	-40
1974.76	-38
1975.58	-34
1976.4	-25
1977.22	-36
1978.04	-19
1978.86	-31
1979.68	-35
1980.5	-34.5
1981.32	-27.5
1982.14	-24
1982.96	-44
1983.78	-41
1984.6	-22.5
1985.42	-39
1986.24	-41
1987.06	-29
1987.87	-18.5
1988.69	-35
1989.51	-38
1990.32	-30.5
1991.14	-23
1991.96	-47.5
1992.78	-31
1993.59	-24
1994.41	-44
1995.22	-43.5
1996.04	-23
1996.85	-12
1997.67	-39.8524
1998.48	-31.5012
1999.3	-28.5789
2000.11	-33.3688
2000.93	-42.2145
2001.74	-28.5502
2002.56	-33.0055
2003.37	-39.8471
2004.18	-40.7907
2004.99	-25.3014
2005.81	-24.1872
2006.62	-31.3503
2007.43	-24.363
2008.25	-19.2035
2009.06	-34.2111
2009.87	-32.583
2010.68	-31.1677
2011.49	-27.968
2012.3	-27.3553
2013.11	-26.2458
2013.92	-23.7691
2014.73	-25.8553
2015.54	-41.016
2016.35	-30.3008
2017.16	-29.3229
2017.97	-33.0594
2018.78	-46.6473
2019.59	-34.091
2020.4	-19.1547
2021.21	-28.3479
2022.02	-31.0182
2022.83	-28.002
2023.63	-24.1314
2024.44	-34.0882
2025.25	-34.1257
2026.06	-24.1372
2026.86	-34.6908
2027.67	-32.0089
2028.48	-22.9159
2029.28	-31.2264
2030.09	-31.4521
2030.89	-24.5858
2031.7	-23.8241
2032.5	-25.912
2033.31	-26.7994
2034.11	-29.1276
2034.92	-25.8088
2035.72	-31.9441
2036.53	-30.7821
2037.33	-25.7128
2038.14	-32.3843
2038.94	-32.1333
2039.74	-22.1601
2040.55	-10.2749
2041.35	-25.0517
2042.15	-29.6606
2042.95	-29.687
2043.76	-22.7075
2044.56	-30.4566
2045.36	-31.5901
2046.16	-27.1065
2046.96	-29.89
2047.76	-20.3044
2048.56	-28.5601
2049.37	-32.2419
2050.17	-25.5395
2050.97	-33.0266
2051.77	-22.4235
2052.57	-20.2532
2053.36	-26.9082
2054.16	-23.0569
2054.96	-24.7887
2055.76	-19.1418
2056.56	-20.3649
2057.36	-18.6809
2058.16	-23.7101
2058.96	-25.4319
2059.75	-33.6259
2060.55	-17.4266
2061.35	-21.0547
2062.14	-28.0769
2062.94	-28.4844
2063.74	-23.6421
2064.53	-22.2151
2065.33	-31.1238
2066.13	-25.0134
2066.92	-19.1071
2067.72	-23.8693
2068.51	-29.9344
2069.31	-22.7469
2070.1	-17.7871
2070.9	-26.5785
2071.69	-22.6169
2072.49	-18.5017
2073.28	-11.7015
2074.07	-13.2254
2074.87	-25.1666
2075.66	-23.8406
2076.45	-3.76574
2077.25	-28.8865
2078.04	-17.1026
2078.83	-3.77523
2079.62	-2.92964
2080.41	-6.0323
2081.21	-11.1958
2081.38	-12.5
2082.2	-20.5
2083.03	-9.5
2083.86	-13.5
2084.68	-17.5
2085.51	-8
2086.34	-10.5
2087.16	-22.5
2087.99	-10.5
2088.81	-13
2089.64	-26
2090.46	-11
2091.29	-25
2092.11	-10
2092.94	-23
2093.76	-10.5
2094.58	-13.5
2095.41	-17
2096.23	-19
2097.06	-4
2097.88	-8.5
2098.7	-19
2099.53	-19.5
2100.35	-22
2101.17	-16
2101.99	-28
2102.81	-18.5
2103.64	-21.5
2104.46	-10.5
2105.28	-17
2106.1	-12
2106.92	-14.5
2107.74	-21.5
2108.56	-25
2109.38	-16.5
2110.2	-21
2111.03	-13
2111.84	-16
2112.66	-9.5
2113.48	-27
2114.3	-18.5
2115.12	-2
2115.94	-17
2116.76	-21
2117.58	-15.5
2118.4	-22.5
2119.22	-16
2120.03	-29.5
2120.85	-23
2121.67	-12
2122.49	-23
2123.3	-17
2124.12	-10
2124.94	-8
2125.76	-25
2126.57	-11.5
2127.39	-20
2128.2	-21
2129.02	-16
2129.83	-12.5
2130.65	-13.5
2131.47	-25.5
2132.28	-21.5
2133.1	-9.5
2133.91	-16.5
2134.73	-22.5
2135.54	-9.5
2136.35	-20
2137.17	-24
2137.98	-20
2138.79	-20
2139.61	-18.5
2140.42	-26
2141.23	-15
2142.05	-1.5
2142.86	-14
2143.67	-26
2144.48	-17.5
2145.3	-8.5
2146.11	-10
2146.92	-30
2147.73	-14.5
2148.54	-13
2149.35	-20.5
2150.16	-5
2150.97	-9.5
2151.79	-19.5
2152.6	-19
2153.41	-15
2154.22	-18
2155.02	-24
2155.83	-34
2156.64	-21.5
2157.45	-20.5
2158.26	-23
2159.07	-15.5
2159.88	-10
2160.69	-20
2161.5	-23
2162.3	-20
2163.11	-15
2163.92	-16.5
2164.73	-22
2165.53	-10.5
2166.34	-25
2167.15	-20
2167.95	-23.5
2168.76	-15
2169.57	-18.5
2170.37	-15
2171.18	-13
2171.98	-22
2172.79	-38
2173.59	-23
2174.4	-15
2175.2	-32.5
2176.01	-20.5
2176.81	-9
2177.62	-18
2178.42	-30.5
2179.22	-18.5
2180.03	-13.5
2180.83	-17
2181.63	-40
2182.44	-38
2183.24	-23.5
2184.04	-21
2184.85	-27
2185.65	-29
2186.45	-16.5
2187.25	-26
2188.05	-24.5
2188.86	-16
2189.66	-33.5
2190.46	-24
2191.26	-16
2192.06	-28
2192.86	-20
2193.66	-35
2194.46	-15
2195.26	-23.5
2196.06	-37.5
2196.86	-24
2197.66	-18.5
2198.46	-28
2199.26	-41
2200.06	-29
2200.85	-18.5
2201.65	-27
2202.45	-36
2203.25	-20.5
2204.05	-27
2204.84	-28.5
2205.64	-22.5
2206.44	-23.5
2207.24	-25.5
2208.03	-28.5
2208.83	-30.5
2209.63	-32.5
2210.42	-29.5
2211.22	-26
2212.01	-17.5
2212.81	-31
2213.61	-22.5
2214.4	-26
2215.2	-25
2215.99	-37
2216.79	-33.5
2217.58	-23
2218.37	-31
2219.17	-43
2219.96	-41
2220.76	-33
2221.55	-26.5
2222.34	-34.5
2223.14	-29
2223.93	-35
2224.72	-35.5
2225.51	-29
2226.31	-27
2227.1	-37
2227.89	-40
2228.68	-34
2229.47	-19.5
2230.27	-20.5
2231.06	-29
2231.85	-18
2232.64	-33.5
2233.43	-42
2234.22	-44
2235.01	-27.5
2235.8	-36.5
2236.59	-38
2237.38	-27
2238.17	-27
2238.96	-32
2239.75	-30.5
2240.54	-19
2241.33	-27.5
2242.11	-33.5
2242.9	-44
2243.69	-24
2244.48	-43
2245.27	-50
2246.05	-25
2246.84	-35
2247.63	-25.5
2248.41	-40
2249.2	-25
2249.99	-21.5
2250.77	-30
2251.56	-35
2252.35	-19
2253.13	-44
2253.92	-35
2254.7	-33.5
2255.49	-27.5
2256.27	-29
2257.06	-34.5
2257.84	-16
2258.63	-27.5
2259.41	-35
2260.2	-20
2260.98	-29
2261.76	-27.5
2262.55	-43
2263.33	-32
2264.11	-27
2264.9	-26.5
2265.68	-34
2266.46	-23.5
2267.24	-34.5
2268.03	-37
2268.81	-19.5
2269.59	-33
2270.37	-38
2271.15	-31
2271.93	-21
2272.71	-36
2273.5	-33.5
2274.28	-37
2275.06	-17.5
2275.84	-37.5
2276.62	-34
2277.4	-28.5
2278.18	-23.5
2278.96	-28.5
2279.73	-38
2280.51	-30.5
2281.29	-27
2282.07	-36
2282.85	-23
2283.63	-25
2284.41	-45.5
2285.18	-42
2285.96	-30
2286.74	-32.5
2287.52	-29.5
2288.29	-41
2289.07	-37
2289.85	-31
2290.62	-33
2291.4	-30
2292.18	-22.5
2292.95	-23.5
2293.73	-37
2294.5	-23
2295.28	-21
2296.05	-33.5
2296.83	-31.5
2297.6	-28
2298.38	-18.5
2299.15	-24
2299.93	-38.5
2300.7	-35
2301.48	-40
2302.25	-29.5
2303.02	-30
2303.8	-29
2304.57	-38
2305.34	-50
2306.11	-24
2306.89	-31.5
2307.66	-25
2308.43	-28.5
2309.2	-25
2309.97	-43
2310.75	-32
2311.52	-34.5
2312.29	-24.5
2313.06	-29.5
2313.83	-48
2314.6	-34
2315.37	-45
2316.14	-47
2316.91	-34
2317.68	-27.5
2318.45	-37.5
2319.22	-51
2319.99	-33
2320.76	-28.5
2321.53	-37
2322.3	-29
2323.06	-47.5
2323.83	-25.5
2324.6	-50
2325.37	-16
2326.14	-20
2326.9	-39
2327.67	-30.5
2328.44	-28.5
2329.21	-28.5
2329.97	-41
2330.74	-33
2331.5	-30
2332.27	-37.5
2333.04	-34
2333.8	-27
2334.57	-41
2335.33	-31
2336.1	-45
2336.86	-20.5
2337.63	-40.5
2338.39	-40
2339.16	-38
2339.92	-27.5
2340.69	-34
2341.45	-47.5
2342.21	-30
2342.98	-22.5
2343.74	-36
2344.5	-39
2345.27	-21.5
2346.03	-31
2346.79	-43.5
2347.55	-30.5
2348.31	-48
2349.08	-25
2349.84	-37
2350.6	-29.5
2351.36	-30
2352.12	-48
2352.88	-42
2353.64	-14.5
2354.41	-29
2355.17	-40
2355.93	-40
2356.69	-32
2357.45	-34.5
2358.21	-39
2358.96	-30.5
2359.72	-19
2360.48	-43
2361.24	-36
2362	-33.5
2362.76	-25
2363.52	-37
2364.28	-33
2365.03	-33
2365.79	-36
2366.55	-56
2367.31	-35.5
2368.06	-28
2368.82	-32
2369.58	-34.5
2370.33	-25
2371.09	-43
2371.85	-45.5
2372.6	-37.5
2373.36	-47.5
2374.11	-30.5
2374.87	-52
2375.62	-24.5
2376.38	-34.5
2377.13	-33
2377.89	-37.5
2378.64	-23.5
2379.4	-33.5
2380.15	-46.5
2380.9	-29.5
2381.66	-37
2382.41	-26
2383.16	-32
2383.92	-31
2384.67	-29
2385.42	-38.5
2386.18	-45
2386.93	-21.5
2387.68	-38
2388.43	-49
2389.18	-33
2389.94	-24
2390.69	-30.5
2391.44	-37.5
2392.19	-29
2392.94	-26
2393.69	-31
2394.44	-37
2395.19	-25.5
2395.94	-32.5
2396.69	-29
2397.44	-36
2398.19	-33
2398.94	-24.5
2399.69	-46.5
2400.44	-29.5
2401.19	-37
2401.93	-53
2402.68	-39.5
2403.43	-38.5
2404.18	-32
2404.93	-38.5
2405.67	-37
2406.42	-28
2407.17	-41
2407.92	-27
2408.66	-27
2409.41	-21
2410.16	-48
2410.9	-41
2411.65	-37
2412.39	-39
2413.14	-53
2413.89	-30
2414.63	-36
2415.38	-39
2416.12	-30
2416.86	-26
2417.61	-33.5
2418.35	-29
2419.1	-25
2419.84	-30
2420.59	-36
2421.33	-39
2422.07	-37
2422.82	-26.5
2423.56	-42.5
2424.3	-33
2425.04	-30
2425.79	-33
2426.53	-48
2427.27	-38.5
2428.01	-22.5
2428.75	-34
2429.5	-43
2430.24	-34
2430.98	-25.5
2431.72	-37
2432.46	-29
2433.2	-39
2433.94	-37
2434.68	-34
2435.42	-36
2436.16	-34.5
2436.9	-37.5
2437.64	-39
2438.38	-31
2439.12	-38
2439.86	-31
2440.59	-27.5
2441.33	-34.5
2442.07	-26
2442.81	-40
2443.55	-40.5
2444.28	-30
2445.02	-31
2445.76	-39
2446.5	-36.5
2447.23	-31.5
2447.97	-41
2448.71	-38
2449.44	-34.5
2450.18	-39
2450.91	-54
2451.65	-31
2452.39	-34.5
2453.12	-33
2453.86	-35
2454.59	-29
2455.33	-40
2456.06	-35
2456.79	-23.5
2457.53	-23
2458.26	-39.5
2459	-40
2459.73	-35
2460.46	-25
2461.2	-38
2461.93	-40
2462.66	-31.5
2463.4	-36
2464.13	-39
2464.86	-35
2465.59	-21
2466.32	-35
2467.06	-33
2467.79	-32.5
2468.52	-43
2469.25	-28.5
2469.98	-33
2470.71	-39
2471.44	-39
2472.17	-38
2472.9	-20
2473.63	-23.5
2474.36	-35
2475.09	-48
2475.82	-32.5
2476.55	-23.5
2477.28	-20.5
2478.01	-42
2478.74	-26
2479.47	-31.5
2480.19	-44
2480.92	-30
2481.65	-26
2482.38	-33
2483.11	-41
2483.83	-36.5
2484.56	-38
2485.29	-46
2486.01	-50
2486.74	-30
2487.47	-52
2488.19	-41
2488.92	-37
2489.65	-27
2490.37	-41
2491.1	-28
2491.82	-34
2492.55	-29
2493.27	-32
2494	-38
2494.72	-32
2495.45	-47
2496.17	-31
2496.89	-33
2497.62	-32.5
2498.34	-40
2499.06	-38
2499.79	-25.5
2500.51	-31
2501.23	-32
2501.96	-28
2502.68	-33
2503.4	-51
2504.12	-36
2504.84	-17.5
2505.57	-34
2506.29	-48
2507.01	-30
2507.73	-30
2508.45	-32
2509.17	-31
2509.89	-38
2510.61	-25.5
2511.33	-48
2512.05	-33.5
2512.77	-24
2513.49	-38
2514.21	-40
2514.93	-36
2515.65	-35
2516.37	-28
2517.09	-53
2517.81	-32.5
2518.52	-31.5
2519.24	-37
2519.96	-37
2520.68	-33
2521.4	-42
2522.11	-52
2522.83	-31.5
2523.55	-41
2524.26	-33
2524.98	-36
2525.7	-34
2526.41	-27.5
2527.13	-46
2527.84	-32
2528.56	-33.5
2529.28	-25.5
2529.99	-33
2530.71	-24.5
2531.42	-39
2532.14	-28
2532.85	-28
2533.56	-25.5
2534.28	-25.5
2534.99	-48
2535.71	-29
2536.42	-33
2537.13	-33
2537.85	-41
2538.56	-29
2539.27	-31
2539.98	-29
2540.7	-23.5
2541.41	-21
2542.12	-38.5
2542.83	-37
2543.54	-23.5
2544.26	-21
2544.97	-36.5
2545.68	-28.5
2546.39	-35
2547.1	-42.5
2547.81	-29.5
2548.52	-29.5
2549.23	-26
2549.94	-36.5
2550.65	-63
2551.36	-35
2552.07	-28
2552.78	-29.5
2553.49	-37
2554.2	-25
2554.91	-46.5
2555.61	-40
2556.32	-30
2557.03	-16.5
2557.74	-33.5
2558.45	-53
2559.15	-33.5
2559.86	-25.5
2560.57	-41.5
2561.27	-27.5
2561.98	-32.5
2562.69	-45.5
2563.39	-29
2564.1	-30.5
2564.81	-31
2565.51	-22.5
2566.22	-46
2566.92	-28
2567.63	-32
2568.33	-26
2569.04	-49
2569.74	-30
2570.45	-43
2571.15	-30
2571.86	-35
2572.56	-39
2573.26	-33.5
2573.97	-54
2574.67	-25.5
2575.37	-42
2576.08	-48
2576.78	-27
2577.48	-30
2578.19	-37
2578.89	-34.5
2579.59	-27.5
2580.29	-28.5
2580.99	-42
2581.69	-41
2582.4	-30
2583.1	-29.5
2583.8	-37
2584.5	-27.5
2585.2	-23
2585.9	-40
2586.6	-36
2587.3	-31
2588	-35
2588.7	-36
2589.4	-60
2590.1	-27.5
2590.8	-30.5
2591.5	-29.5
2592.19	-36
2592.89	-21.5
2593.59	-45
2594.29	-32.5
2594.99	-34.5
2595.68	-30.5
2596.38	-33
2597.08	-36
2597.78	-26
2598.47	-33
2599.17	-45
2599.87	-45
2600.56	-23.5
2601.26	-38
2601.96	-42
2602.65	-28.5
2603.35	-38
2604.04	-35
2604.74	-34
2605.43	-32.5
2606.13	-19.5
2606.82	-42
2607.52	-31
2608.21	-21
2608.91	-39.5
2609.6	-49
2610.29	-18.5
2610.99	-26.5
2611.68	-28
2612.37	-35
2613.07	-26
2613.76	-26.5
2614.45	-36
2615.15	-28
2615.84	-29.5
2616.53	-43
2617.22	-28
2617.91	-30
2618.6	-36.5
2619.3	-39.5
2619.99	-34.5
2620.68	-28
2621.37	-30.5
2622.06	-41
2622.75	-39
2623.44	-27
2624.13	-36.5
2624.82	-36.5
2625.51	-31.5
2626.2	-29
2626.89	-56
2627.58	-41
2628.27	-29.5
2628.96	-36
2629.64	-54
2630.33	-33
2631.02	-35
2631.71	-49.5
2632.4	-37
2633.08	-19
2633.77	-24.5
2634.46	-39
2635.15	-42
2635.83	-13.5
2636.52	-22
2637.21	-53.5
2637.89	-36
2638.58	-31
2639.26	-40
2639.95	-23
2640.64	-34
2641.32	-30.5
2642.01	-44
2642.69	-34
2643.38	-40.5
2644.06	-23.5
2644.75	-48
2645.43	-30.5
2646.11	-14.5
2646.8	-37
2647.48	-34
2648.16	-34.5
2648.85	-25.5
2649.53	-39
2650.21	-47
2650.9	-30.5
2651.58	-36
2652.26	-38.5
2652.94	-24
2653.63	-30
2654.31	-34.5
2654.99	-35
2655.67	-28.5
2656.35	-30.5
2657.03	-38
2657.71	-33.5
2658.39	-22
2659.08	-30
2659.76	-44
2660.44	-33
2661.12	-36
2661.8	-48
2662.48	-23
2663.15	-30
2663.83	-29
2664.51	-30
2665.19	-38
2665.87	-44
2666.55	-38
2667.23	-34.5
2667.91	-29
2668.58	-38
2669.26	-38
2669.94	-30
2670.62	-23.5
2671.29	-31
2671.97	-49
2672.65	-32.5
2673.32	-27.5
2674	-33
2674.68	-31.5
2675.35	-32.5
2676.03	-30.5
2676.7	-33
2677.38	-35
2678.06	-23
2678.73	-39.5
2679.41	-48
2680.08	-32.5
2680.75	-28
2681.43	-45
2682.1	-43
2682.78	-21.5
2683.45	-39.5
2684.12	-32
2684.8	-31
2685.47	-18.5
2686.14	-35
2686.82	-23
2687.49	-28
2688.16	-28.5
2688.83	-33
2689.51	-27
2690.18	-20
2690.85	-42.5
2691.52	-52
2692.19	-33
2692.86	-39
2693.54	-33.8905
2694.21	-29.8054
2694.88	-31.837
2695.55	-19.7531
2696.22	-31.2136
2696.89	-32.7276
2697.56	-19.1084
2698.23	-25.1335
2698.9	-36.2965
2699.57	-30.4693
2700.24	-18.0597
2700.91	-23.5828
2701.57	-34.8467
2702.24	-26.077
2702.91	-27.5119
2703.58	-35.6064
2704.25	-31.2772
2704.92	-40.1867
2705.58	-31.8606
2706.25	-28.693
2706.92	-23.7038
2707.58	-31.0649
2708.25	-26.5731
2708.92	-31.2569
2709.59	-21.7174
2710.25	-30.5896
2710.92	-25.1717
2711.58	-30.6538
2712.25	-20.3575
2712.92	-29.9503
2713.58	-27.3558
2714.25	-18.3329
2714.91	-26.6281
2715.58	-18.1976
2716.24	-26.963
2716.91	-23.4336
2717.57	-25.6702
2718.23	-33.6052
2718.9	-23.8235
2719.56	-26.7016
2720.23	-31.9676
2720.89	-28.8685
2721.55	-16.2752
2722.22	-27.7497
2722.88	-34.417
2723.54	-28.0472
2724.2	-23.8424
2724.87	-21.6143
2725.53	-33.0368
2726.19	-23.0185
2726.85	-21.1555
2727.51	-26.2699
2728.18	-30.4976
2728.84	-14.6749
2729.5	-30.0623
2730.16	-30.9718
2730.82	-30.5556
2731.48	-24.0759
2732.14	-25.0684
2732.8	-36.0951
2733.46	-29.6106
2734.12	-24.057
2734.78	-27.3238
2735.44	-37.1028
2736.1	-20.3511
2736.76	-17.3745
2737.42	-27.668
2738.07	-35.791
2738.73	-31.6857
2739.39	-14.3304
2740.05	-26.9655
2740.71	-34.5196
2741.37	-28.1163
2742.02	-22.3902
2742.68	-31.6374
2743.34	-27.6875
2743.99	-15.0515
2744.65	-20.3561
2745.31	-27.648
2745.96	-30.2626
2746.62	-21.328
2747.28	-16.1743
2747.93	-30.3992
2748.59	-38.464
2749.24	-8.44087
2749.9	-22.2558
2750.55	-38.2929
2751.21	-25.1198
2751.86	-13.4442
2752.52	-21.247
2753.17	-32.2213
2753.83	-15.9142
2754.48	-19.2447
2755.14	-32.5929
2755.79	-24.7398
2756.44	-16.369
2757.1	-18.8988
2757.75	-27.9091
2758.4	-29.3847
2759.05	-16.4807
2759.71	-17.472
2760.36	-27.0486
2761.01	-26.7521
2761.66	-15.2358
2762.32	-16.6033
2762.97	-32.3916
2763.63	-29
2764.32	-12
2765.01	-22
2765.69	-22
2766.38	-20.5
2767.07	-7.5
2767.75	-26
2768.44	-30.5
2769.12	-10
2769.81	-10
2770.49	-17
2771.18	-16
2771.87	-14
2772.55	-16.5
2773.24	-21.5
2773.92	-19
2774.6	-10
2775.29	-18
2775.97	-30
2776.66	-14
2777.34	-6
2778.03	-20.5
2778.71	-25.5
2779.39	-3.5
2780.08	-24
2780.76	-30
2781.44	-16
2782.12	-22
2782.81	-16.5
2783.49	-23
2784.17	-4
2784.85	-6.5
2785.54	-33
2786.22	-19.5
2786.9	-9.5
2787.58	-18.5
2788.26	-39
2788.94	-15
2789.63	-12
2790.31	-34
2790.99	-27
2791.67	-5
2792.35	-3.5
2793.03	-17
2793.71	-21.5
2794.39	-5.5
2795.07	-42
2795.75	-24
2796.43	-10
2797.11	-7
2797.79	-18
2798.46	-29
2799.14	-11.5
2799.82	-9.5
2800.5	-29.5
2801.18	-18
2801.86	-8.5
2802.54	-28
2803.21	-27
2803.89	-16
2804.57	-10
2805.25	-34.5
2805.92	-28.5
2806.6	-14
2807.28	-28
2807.95	-21
2808.63	-12.5
2809.31	14
2809.98	-22.5
2810.66	-32
2811.34	-15
2812.01	-18.5
2812.69	-31
2813.36	-28
2814.04	1.5
2814.71	-14
2815.39	-27
2816.06	-17
2816.74	-12
2817.41	-8.5
2818.09	-28
2818.76	-12.5
2819.44	-15
2820.11	-38
2820.78	-20.5
2821.46	-9
2822.13	-25
2822.8	-30
2823.48	-19.5
2824.15	-13.5
2824.82	-27
2825.49	-26
2826.17	-12
2826.84	-26
2827.51	-30
2828.18	-14
2828.86	-11
2829.53	-22.5
2830.2	-30.5
2830.87	-10
2831.54	-3
2832.21	-26
2832.88	-31.5
2833.55	-1.5
2834.22	-19.5
2834.9	-30
2835.56	-9.5
2836.23	-11
2836.91	-30
2837.57	-16
2838.24	-30.5
2838.91	-19
2839.58	-18
2840.25	-23
2840.92	-4
2841.59	-8
2842.26	-26
2842.93	-16.5
2843.6	-12
2844.26	-16.5
2844.93	-25.5
2845.6	-18
2846.27	-5.5
2846.93	-28
2847.6	-22
2848.27	-4.5
2848.94	-20
2849.6	-21
2850.27	-16
2850.94	-9
2851.6	-26
2852.27	-29.5
2852.94	-9.5
2853.6	-5
2854.27	-19
2854.93	-23.5
2855.6	-3
2856.26	-19
2856.93	-36
2857.59	-12
2858.26	-13
2858.92	-23.5
2859.59	-22
2860.25	-9.5
2860.92	-11
2861.58	-36.5
2862.24	-12
2862.91	-5
2863.57	-14
2864.23	-39.5
2864.9	-0.5
2865.56	-16
2866.22	-37
2866.89	-23.5
2867.55	-12
2868.21	-18
2868.87	-42
2869.54	-25
2870.2	-9
2870.86	-27
2871.52	-24.5
2872.18	-16
2872.84	-23
2873.51	-53
2874.17	-38.5
2874.83	1.5
2875.49	-18
2876.15	-26.5
2876.81	-27
2877.47	-8.5
2878.13	-27.5
2878.79	-23
2879.45	-12.5
2880.11	-25
2880.77	-38
2881.43	-32.5
2882.09	-18
2882.75	-29.5
2883.4	-32
2884.06	-33
2884.72	-8.5
2885.38	-26
2886.04	-31.5
2886.7	-15.5
2887.35	-4.5
2888.01	-24
2888.67	-28
2889.33	-16
2889.98	-33.5
2890.64	-24.5
2891.3	-24
2891.95	-8.5
2892.61	-33
2893.27	-25.5
2893.92	-21.5
2894.58	-12
2895.23	-40
2895.89	-19.5
2896.55	-21
2897.2	-23
2897.86	-34
2898.51	-17
2899.17	-22
2899.82	-36.5
2900.48	-30.5
2901.13	-11
2901.79	-28
2902.44	-41
2903.09	-38.5
2903.75	-26.5
2904.4	-21.5
2905.05	-27.5
2905.71	-25
2906.36	-20
2907.01	-29.5
2907.67	-36
2908.32	-18
2908.97	-17.5
2909.63	-52
2910.28	-14
2910.93	-12
2911.58	-15
2912.23	-16
2912.88	-16
2913.54	-31
2914.19	-28.5
2914.84	-43
2915.49	-30
2916.14	-20
2916.79	-24
2917.44	-18.5
2918.09	-27
2918.74	-22
2919.39	-24.5
2920.04	-38
2920.69	-28
2921.34	-24
2921.99	-30
2922.64	-34
2923.29	-27.5
2923.94	-27
2924.59	-27
2925.23	-22
2925.88	-28.5
2926.53	-39
2927.18	-30.5
2927.83	-23.5
2928.48	-43
2929.12	-38.5
2929.77	-13
2930.42	-45
2931.07	-37
2931.71	-31.5
2932.36	-19.5
2933.01	-33
2933.65	-28.5
2934.3	-16.5
2934.95	-28
2935.59	-37
2936.24	-30.5
2936.88	-24.5
2937.53	-23.5
2938.17	-8
2938.82	-31.5
2939.46	-30
2940.11	-27
2940.75	-39
2941.4	-18
2942.04	-22
2942.69	-31.5
2943.33	-26
2943.98	-23
2944.62	-32
2945.26	-28
2945.91	-23.5
2946.55	-31
2947.19	-48
2947.84	-33
2948.48	-15
2949.12	-39
2949.76	-37.5
2950.41	-25.5
2951.05	-35
2951.69	-38.5
2952.33	-29.5
2952.98	-20
2953.62	-35
2954.26	-34
2954.9	-34.5
2955.54	-29
2956.18	-44
2956.82	-48
2957.46	-35
2958.1	-44
2958.74	-34.5
2959.38	-44.5
2960.02	-30
2960.66	-40
2961.3	-40
2961.94	-28
2962.58	-16.5
2963.22	-33
2963.86	-37
2964.5	-24
2965.14	-36
2965.78	-38
2966.42	-32
2967.05	-25
2967.69	-22
2968.33	-38
2968.97	-25
2969.61	-23
2970.24	-42
2970.88	-24
2971.52	-24.5
2972.15	-25
2972.79	-45
2973.43	-29
2974.06	-18.5
2974.7	-32
2975.34	-41
2975.97	-26.5
2976.61	-31
2977.24	-40
2977.88	-38.5
2978.52	-33
2979.15	-38.5
2979.79	-41.5
2980.42	-36
2981.06	-33
2981.69	-53
2982.32	-29.5
2982.96	-35
2983.59	-40
2984.23	-51
2984.86	-22.5
2985.49	-23
2986.13	-32.5
2986.76	-48
2987.39	-35.5
2988.03	-10
2988.66	-33.5
2989.29	-39
2989.93	-25
2990.56	-34
2991.19	-48
2991.82	-34.5
2992.45	-31
2993.09	-22.5
2993.72	-43
2994.35	-21.5
2994.98	-27.5
2995.61	-39
2996.24	-28.5
2996.87	-26
2997.5	-40.5
2998.14	-47
2998.77	-38
2999.4	-26
3000.03	-26
3000.66	-46.5
3001.29	-29
3001.91	-28
3002.54	-40.5
3003.17	-51.5
3003.8	-27
3004.43	-40
3005.06	-51
3005.69	-32
3006.32	-32
3006.95	-39
3007.57	-44
3008.2	-26
3008.83	-21.5
3009.46	-35
3010.08	-37
3010.71	-23.5
3011.34	-33
3011.97	-27
3012.59	-33
3013.22	-29
3013.85	-35
3014.47	-37
3015.1	-41
3015.72	-26
3016.35	-32
3016.98	-40
3017.6	-23
3018.23	-37
3018.85	-35
3019.48	-30.5
3020.1	-29
3020.73	-44
3021.35	-43
3021.98	-25.5
3022.6	-29.5
3023.23	-37
3023.85	-34
3024.47	-24
3025.1	-54
3025.72	-54
3026.34	-31
3026.97	-25
3027.59	-47.5
3028.21	-38.5
3028.84	-25
3029.46	-24
3030.08	-41.5
3030.7	-30.5
3031.32	-16
3031.95	-39
3032.57	-37.5
3033.19	-36
3033.81	-29
3034.43	-44.5
3035.05	-39.5
3035.68	-15
3036.3	-16
3036.92	-54
3037.54	-40.5
3038.16	-22
3038.78	-32
3039.4	-49
3040.02	-26.5
3040.64	-22.5
3041.26	-35
3041.88	-41
3042.5	-33
3043.12	-24
3043.73	-44
3044.35	-40.5
3044.97	-19.5
3045.59	-41
3046.21	-41
3046.83	-29.5
3047.44	-22.5
3048.06	-50.5
3048.68	-43.5
3049.3	-28.5
3049.92	-36
3050.53	-50
3051.15	-42.5
3051.77	-36
3052.38	-60
3053	-30
3053.62	-26
3054.23	-43
3054.85	-41
3055.46	-41.5
3056.08	-23.5
3056.7	-34.5
3057.31	-47
3057.93	-40.5
3058.54	-30
3059.16	-43
3059.77	-36
3060.39	-24.5
3061	-33
3061.61	-47.5
3062.23	-40
3062.84	-10
3063.46	-41
3064.07	-54
3064.68	-26
3065.3	-23
3065.91	-43
3066.52	-39
3067.14	-27
3067.75	-24
3068.36	-42
3068.98	-38.5
3069.59	-25.5
3070.2	-32
3070.81	-43.5
3071.42	-25
3072.04	-35
3072.65	-49
3073.26	-40
3073.87	-11
3074.48	-37
3075.09	-48
3075.7	-48.5
3076.31	-20.5
3076.92	-32
3077.53	-49
3078.14	-27
3078.75	-35
3079.36	-40
3079.97	-48.5
3080.58	-19
3081.19	-26
3081.8	-48
3082.41	-38.5
3083.02	-15
3083.63	-39
3084.24	-42
3084.84	-28
3085.45	-36
3086.06	-47
3086.67	-34
3087.28	-27.5
3087.88	-44.5
3088.49	-44
3089.1	-41
3089.71	-14.5
3090.31	-31
3090.92	-52.5
3091.53	-27
3092.13	-30
3092.74	-41
3093.34	-27
3093.95	-23
3094.56	-39
3095.16	-47
3095.77	-26.5
3096.37	-17.5
3096.98	-37.5
3097.58	-53.5
3098.19	-32.5
3098.79	-40
3099.4	-59
3100	-34
3100.61	-20
3101.21	-30
3101.81	-44
3102.42	-31.5
3103.02	-35
3103.63	-33
3104.23	-49
3104.83	-20
3105.43	-27
3106.04	-44
3106.64	-36
3107.24	-27
3107.85	-28
3108.45	-53
3109.05	-39.5
3109.65	-24
3110.25	-38
3110.86	-48
3111.46	-25
3112.06	-37
3112.66	-44.5
3113.26	-36.5
3113.86	-23
3114.46	-26.5
3115.06	-36.5
3115.66	-24
3116.26	-24
3116.86	-46
3117.46	-39
3118.06	-31
3118.66	-28.5
3119.26	-56
3119.86	-35
3120.46	-24
3121.06	-36
3121.66	-41.5
3122.26	-34
3122.85	-39.5
3123.45	-58
3124.05	-54
3124.65	-20
3125.25	-46
3125.84	-47
3126.44	-33.5
3127.04	-20.5
3127.64	-33.5
3128.23	-49
3128.83	-18.5
3129.43	-32
3130.02	-37
3130.62	-36
3131.22	-29.5
3131.81	-40.5
3132.41	-41.5
3133	-35
3133.6	-20
3134.19	-42
3134.79	-45.5
3135.39	-28.5
3135.98	-31
3136.58	-30.5
3137.17	-35
3137.76	-22
3138.36	-39.5
3138.95	-41.5
3139.55	-31.5
3140.14	-16
3140.73	-49
3141.33	-48
3141.92	-29.5
3142.51	-34
3143.11	-48.5
3143.7	-39
3144.29	-27.5
3144.89	-22.5
3145.48	-49.5
3146.07	-33.5
3146.66	-23
3147.26	-41
3147.85	-53.5
3148.44	-29.5
3149.03	-32.5
3149.62	-44
3150.21	-44.5
3150.8	-24
3151.39	-59
3151.99	-50
3152.58	-25.5
3153.17	-28
3153.76	-36
3154.35	-42.5
3154.94	-23
3155.53	-29.5
3156.12	-34
3156.71	-40.5
3157.29	-27.5
3157.88	-35
3158.47	-51.5
3159.06	-25
3159.65	-28
3160.24	-27
3160.83	-38
3161.42	-27
3162	-33
3162.59	-32.5
3163.18	-28
3163.77	-30.5
3164.35	-44
3164.94	-27.5
3165.53	-34
3166.12	-38
3166.7	-33.5
3167.29	-44.5
3167.88	-22
3168.46	-45.5
3169.05	-45
3169.64	-25.5
3170.22	-26
3170.81	-42
3171.39	-48
3171.98	-23.5
3172.56	-46
3173.15	-48
3173.73	-30
3174.32	-46
3174.9	-31
3175.49	-44.5
3176.07	-33
3176.65	-28
3177.24	-38.5
3177.82	-47.5
3178.41	-20
3178.99	-31
3179.57	-38
3180.16	-38.5
3180.74	-14
3181.32	-29
3181.91	-48
3182.49	-20
3183.07	-24.5
3183.65	-48
3184.23	-53
3184.82	-26.5
3185.4	-27
3185.98	-43
3186.56	-26
3187.14	-27.5
3187.72	-32
3188.3	-34.5
3188.89	-27.5
3189.47	-25
3190.05	-35
3190.63	-43
3191.21	-33
3191.79	-46
3192.37	-41
3192.95	-29
3193.53	-28.5
3194.11	-34
3194.69	-35.5
3195.26	-21
3195.84	-22
3196.42	-33
3197	-45
3197.58	-27.5
3198.16	-34
3198.74	-38
3199.31	-30.5
3199.89	-43
