100.582	490
101.867	487
103.152	469
104.437	442.5
105.721	465.5
107.004	436
108.287	404
109.571	425.5
110.853	414.5
112.136	408
113.418	405
114.7	409
115.981	402.5
117.262	380
118.543	384.5
119.823	397.5
121.103	369
122.383	383
123.663	374.5
124.942	370
126.221	399.5
127.499	382
128.777	361
130.056	344
131.333	351
132.61	344.5
133.887	338
135.163	326
136.439	350.5
137.715	351
138.992	363.5
140.267	333.5
141.541	315.5
142.816	314.5
144.09	308
145.364	299
146.637	293
147.911	262.5
149.184	292
150.457	268
151.729	269
153.001	268
154.273	281.5
155.544	265
156.815	283
158.086	252.5
159.356	270.5
160.626	268.5
161.896	246
163.165	240.5
164.434	242
165.703	220
166.971	227
168.24	208
169.507	227.5
170.774	224.5
172.042	217
173.309	181
174.575	217.5
175.841	205.5
177.107	190
178.373	194.5
179.637	211.5
180.902	185
182.167	214
183.431	183
184.695	204.5
185.958	180
187.222	192
188.485	197
189.747	193
191.009	171
192.272	174
193.534	183
194.795	186.5
196.055	172
197.316	192.5
198.577	175.5
199.837	175
201.096	189.5
202.356	158
203.615	180
204.873	164
206.132	175
207.39	178
208.648	156
209.905	170
211.162	171.5
212.419	160
213.675	183
214.932	172
216.187	175.5
217.443	165.5
218.697	160.5
219.953	154
221.207	157.5
222.462	158.5
223.715	149
224.969	143.5
226.222	175.5
227.475	155
228.727	143
229.98	157.5
231.232	160.5
232.483	126
233.734	132
234.986	148.5
236.236	123
237.486	151
238.737	147
239.986	146.5
241.235	133
242.484	173.5
243.733	156
244.981	188
246.229	175
247.477	218
248.725	234
249.971	213
251.219	227
252.465	199
253.711	169
254.957	142
256.203	145.5
257.448	171.5
258.693	159
259.937	158
261.181	159
262.425	144.5
263.669	142
264.912	128
266.155	145.5
267.398	131
268.64	125
269.881	122
271.123	139
272.364	115
273.605	122
274.846	129
276.086	125.5
277.326	122.5
278.566	103
279.806	116
281.045	132.5
282.283	127
283.522	111.5
284.76	121
285.998	100
287.235	97
288.473	110.5
289.71	110.5
290.946	95
292.182	101
293.418	106
294.654	112
295.888	90
297.123	102
298.358	104.5
299.592	104
300.826	89
302.06	99
303.293	95
304.526	97
305.759	94
306.991	97.5
308.223	93
309.455	86
310.687	76
311.917	98.5
313.148	96
314.379	58
315.609	100
316.839	102
318.068	53
319.297	95.5
320.526	85.5
321.754	95
322.982	99
324.21	80.5
325.438	82.5
326.665	81
327.892	80.5
329.118	95.5
330.345	78
331.571	59
332.797	77.5
334.022	77.5
335.247	98
336.471	90
337.696	83.5
338.92	90
340.144	72
341.367	79.5
342.591	74
343.813	77
345.036	96
346.257	70
347.48	84.5
348.701	57
349.922	73
351.143	81
352.363	86
353.583	73
354.803	84
356.023	75
357.243	84.5
358.462	61
359.68	72
360.899	90
362.117	67
363.334	74
364.551	80.5
365.769	76
366.986	65
368.202	80.5
369.418	67.5
370.633	75
371.849	84
373.065	60.5
374.279	76
375.494	58
376.708	71
377.921	61.5
379.136	69
380.349	52
381.562	52
382.774	65
383.987	60.5
385.198	44
386.41	61
387.621	69
388.832	69
390.043	53
391.253	66
392.463	68.5
393.674	62.5
394.883	58
396.092	63
397.301	65
398.509	50
399.717	58.5
400.925	65.5
402.133	45
403.34	57.5
404.547	61.5
405.753	67.5
406.96	52
408.165	58
409.371	61
410.576	47
411.781	42
412.986	47
414.191	66
415.394	34
416.598	50
417.802	52.5
419.005	74.5
420.208	40
421.41	41
422.613	44
423.815	59
425.016	45
426.217	40
427.418	40
428.619	54.5
429.818	33
431.019	53.5
432.218	62
433.418	41
434.617	42
435.815	52.5
437.014	62
438.212	43
439.41	48.5
440.607	55
441.805	53.5
443.001	53
444.198	44.5
445.394	48.5
446.59	36
447.785	36.5
448.98	42.5
450.175	36
451.37	47
452.564	34
453.758	53
454.952	22
456.145	29.5
457.339	51
458.531	37
459.724	32
460.916	47.5
462.107	36.5
463.299	30
464.49	35.5
465.681	38.5
466.871	49.5
468.062	31
469.252	41.5
470.441	42.5
471.631	42
472.819	25
474.008	35
475.196	32
476.385	19
477.572	50.5
478.76	42.5
479.946	53
481.133	42
482.32	40
483.506	47
484.692	47
485.877	33.5
487.063	27
488.247	42
489.432	24.5
490.616	38.5
491.8	30.5
492.984	39
494.167	26
495.35	39
496.533	44
497.715	49
498.897	44
500.079	38
501.26	37
502.441	33
503.622	33
504.803	35.5
505.983	25
507.163	16
508.342	18
509.522	38
510.701	43
511.88	18
513.058	33
514.236	45.5
515.413	19
516.591	28
517.768	33
518.945	36.5
520.121	33
521.297	28.5
522.473	33
523.648	36.5
524.823	24
525.998	27
527.173	28
528.348	36.5
529.522	37.5
530.694	22.5
531.868	19
533.041	34
534.214	27
535.386	21.5
536.558	39.5
537.731	42.5
538.902	38
540.073	29.5
541.244	22
542.414	27
543.585	9.5
544.754	29.5
545.924	14
547.094	23
548.262	34.5
549.431	33
550.6	37
551.767	23
552.935	7
554.103	21.5
555.27	28
556.436	22
557.603	35.5
558.769	20
559.935	7.5
561.1	23
562.266	26.5
563.431	2.5
564.595	17.5
565.759	21
566.924	30
568.087	29
569.25	23
570.414	26.5
571.576	6
572.739	18.5
573.901	37
575.062	36.5
576.224	19
577.385	19
578.546	39
579.707	11
580.867	16
582.028	17.5
583.187	31
584.347	7
585.505	10.5
586.664	20
587.822	37.5
588.98	22.5
590.138	25
591.296	33
592.453	33.5
593.61	27
594.767	27.5
595.922	4
597.079	22
598.234	15.5
599.39	27.5
600.544	32
601.699	12
602.854	35
604.008	40.5
605.161	25
606.315	15.5
607.468	34.5
608.621	31
609.774	12
610.926	18
612.078	30
613.229	20
614.381	21.5
615.532	14
616.682	10
617.833	9
618.983	17.5
620.133	21.5
621.282	10
622.431	3
623.58	13
624.729	17
625.877	14
627.025	14
628.172	6.5
629.32	23
630.467	19
631.614	5.5
632.76	22
633.906	3
635.052	10
636.197	9.5
637.343	25
638.488	23
639.632	2.5
640.776	9
641.92	35.5
643.064	10.5
644.207	8.5
645.35	20
646.493	4
647.635	18
648.777	5.5
649.919	20
651.06	5.5
652.202	10
653.342	0.5
654.483	10
655.624	6
656.764	8.5
657.903	6
659.043	0
660.181	9
661.32	7.5
662.459	38
663.596	18
664.735	4
665.872	15
667.009	25
668.146	11
669.282	3.5
670.419	24.5
671.555	6
672.69	11.5
673.826	5.5
674.96	7
676.096	16
677.23	13.5
678.364	14.5
679.498	5.5
680.631	21
681.765	17.5
682.897	25.5
684.03	16.5
685.163	11.5
686.294	14.5
687.426	9
688.557	12.5
689.689	16.5
690.819	22
691.949	21
693.079	18.5
694.21	21
695.339	16
696.468	16.5
697.597	-1
698.725	24
699.854	26
700.982	24
702.11	11
703.237	14
704.364	15
705.491	14.5
706.617	23
707.744	33.5
708.87	-13
709.995	11
711.12	21
712.245	31
713.37	30.5
714.495	23.5
715.618	35.5
716.742	26
717.865	16
718.989	10
720.112	34.5
721.234	13
722.356	12
723.478	34
724.6	19
725.721	15
726.842	21
727.962	19
729.083	20
730.203	12
731.323	7
732.442	26.5
733.562	29
734.681	18.5
735.799	21
736.917	23
738.036	26
739.153	20
740.27	19
741.387	9
742.505	16.5
743.62	7.5
744.736	18
745.853	5
746.968	-5
748.083	21
749.199	9
750.313	8.5
751.427	8
752.541	3
753.655	16
754.768	19
755.882	17
756.994	24
758.107	11
759.219	9.5
760.331	18.5
761.443	17
762.554	16
763.665	8
764.776	31.5
765.885	-5
766.996	19
768.106	16.5
769.215	35.5
770.324	-1
771.434	13.5
772.542	24.5
773.65	19
774.758	10
775.865	12
776.973	21.5
778.081	0
779.187	2.5
780.293	21
781.399	21.5
782.506	8
783.611	3.5
784.716	9
785.821	13
786.926	-3
788.03	18
789.134	25
790.238	-8
791.341	3
792.444	17
793.547	14.5
794.65	7.5
795.752	4.5
796.854	16
797.956	-1
799.057	6
800.158	10.5
801.259	22.5
802.359	13
803.459	22.5
804.559	29.5
805.659	15
806.758	11.5
807.857	14
808.955	10
810.053	17
811.152	15.5
812.25	14.5
813.347	31
814.444	15
815.541	10.5
816.638	25.5
817.733	22
818.83	15.5
819.925	28
821.02	21.5
822.115	10
823.21	11.5
824.305	47.5
825.398	29
826.492	40
827.586	27
828.679	54.5
829.772	50
830.865	36
831.957	39
833.049	50
834.141	53
835.232	50
836.323	53.5
837.414	42
838.505	29
839.595	44
840.685	57
841.774	42
842.864	57
843.952	56.5
845.041	61
846.129	44
847.218	45
848.306	55.5
849.393	60
850.48	60
851.567	39.5
852.654	64.5
853.74	45
854.826	22
855.912	49
856.997	43
858.082	42
859.167	42
860.252	53.5
861.336	40
862.42	49.5
863.504	49
864.587	57
865.67	45.5
866.753	46
867.835	47.5
868.917	56
869.999	50
871.081	44.5
872.162	54.5
873.243	55
874.323	44
875.404	49.5
876.484	56
877.564	58
878.643	39
879.722	40.5
880.802	40
881.88	35
882.958	37
884.036	58
885.113	41
886.191	44
887.268	27
888.344	50
889.421	38.5
890.498	39.5
891.573	32
892.649	38.5
893.724	46.5
894.799	35
895.874	44.5
896.948	26
898.022	29
899.096	46
900.17	46
901.243	49
902.315	37.5
903.389	46
904.461	51.5
905.533	39
906.605	21
907.676	35.5
908.747	37
909.818	21
910.888	54
911.958	40
913.028	21
914.098	30.5
915.167	49
916.237	48
917.306	37.5
918.374	33.5
919.442	49
920.51	40
921.577	28
922.644	40
923.711	47
924.778	21
925.845	22.5
926.911	30
927.977	38
929.042	21.5
930.107	20
931.173	27.5
932.237	18.5
933.301	31
934.365	21.5
935.429	38
936.492	26
937.556	30.5
938.619	42
939.681	14
940.743	25.5
941.805	24.5
942.867	36
943.928	39.5
944.989	24.5
946.05	28.5
947.11	44
948.17	25
949.23	29
950.29	27
951.349	24
952.409	24
953.467	30.5
954.526	37
955.584	1
956.641	32
957.699	37
958.756	40.5
959.813	22
960.869	20
961.926	32
962.982	11
964.038	22
965.094	37
966.149	29
967.204	29
968.258	39
969.312	36.5
970.366	61
971.42	37
972.473	15.5
973.527	28
974.58	40.5
975.631	16
976.684	28.5
977.736	30
978.787	25.5
979.839	23.5
980.89	23.5
981.94	37.5
982.991	17
984.041	25
985.091	23.5
986.141	14
987.19	11
988.239	19.5
989.288	11
990.336	27
991.384	11.5
992.432	29
993.48	30
994.527	12
995.574	10
996.62	25.5
997.666	14.5
998.713	15
999.759	24.5
1000.8	19.5
1001.85	9
1002.89	2
1003.94	29
1004.98	-5
1006.03	15
1007.07	12
1008.11	8
1009.16	12.5
1010.2	8
1011.24	20
1012.29	12
1013.33	18
1014.37	4
1015.41	22
1016.45	13
1017.49	20
1018.53	20
1019.57	13.5
1020.61	13
1021.65	16
1022.69	25
1023.73	13
1024.77	29
1025.81	12
1026.85	26
1027.88	21
1028.92	20
1029.96	18.5
1031	14.5
1032.03	15
1033.07	27.5
1034.1	25.5
1035.14	19
1036.18	4
1037.21	19
1038.25	12
1039.28	31.5
1040.32	19
1041.35	28.5
1042.38	29
1043.42	4
1044.45	-11
1045.48	19
1046.52	19.5
1047.55	2
1048.58	9.5
1049.61	36
1050.64	19
1051.67	12.5
1052.71	18
1053.74	6
1054.77	12.5
1055.8	9
1056.83	26
1057.85	23
1058.88	28.5
1059.91	36.5
1060.94	47
1061.97	25
1063	34
1064.03	26
1065.05	16
1066.08	16
1067.11	33.5
1068.13	45.5
1069.16	50
1070.19	36
1071.21	35
1072.24	44
1073.26	50
1074.29	40
1075.31	35.5
1076.34	42
1077.36	48
1078.38	28
1079.41	54.5
1080.43	46
1081.45	29
1082.47	45.5
1083.5	50.5
1084.52	36
1085.54	21
1086.56	40.5
1087.58	42
1088.6	31.5
1089.62	31.5
1090.64	38.5
1091.66	23
1092.68	31
1093.7	20
1094.72	29.5
1095.74	24.5
1096.76	22.5
1097.78	18
1098.79	11
1099.81	18
1100.83	21.5
1101.85	26
1102.86	25
1103.88	14.5
1104.9	16.5
1105.91	41
1106.93	31
1107.94	14
1108.96	24
1109.97	4
1110.99	14
1112	22
1113.01	13.5
1114.03	8
1115.04	7.5
1116.05	11
1117.07	19
1118.08	24.5
1119.09	16.5
1120.1	19
1121.11	9
1122.13	11
1123.14	23.5
1124.15	-10
1125.16	-5
1126.17	14
1127.18	-3.5
1128.19	15
1129.2	-9
1130.2	-4.5
1131.21	15
1132.22	13
1133.23	-10.5
1134.24	9
1135.25	4
1136.25	1
1137.26	-9.5
1138.27	-0.5
1139.27	0
1140.28	6.5
1141.28	-2
1142.29	10.5
1143.29	3
1144.3	-1.5
1145.3	8
1146.31	12
1147.31	9
1148.32	-10.5
1149.32	4.15714
1150.32	7.18221
1151.33	9.05045
1152.33	2.47372
1153.33	18.5214
1154.33	-21.8962
1155.33	-9.2727
1156.34	20.785
1157.34	14.7108
1158.34	-23.0892
1159.34	1.86562
1160.34	17.358
1161.34	11.7486
1162.34	9.02162
1163.34	12.0293
1164.34	12.675
1165.34	3.12955
1166.33	-8.9928
1167.33	1.98461
1168.33	10.1754
1169.33	-7.88141
1170.33	5.42185
1171.32	9.50482
1172.32	15.0597
1173.32	-2.00222
1174.31	4.80685
1175.31	8.52856
1176.31	-4.58209
1177.3	2.69991
1178.3	11.958
1179.29	20.1473
1180.29	-8.29714
1181.28	8.72647
1182.27	12.1099
1183.27	7.11275
1184.26	8.1832
1185.25	7.64725
1186.25	15.545
1187.24	1.19007
1188.23	-2.61186
1189.22	6.23776
1190.22	13.697
1191.21	2.91455
1192.2	-1.80714
1193.19	17.5257
1194.18	14.3294
1195.17	16.8754
1196.16	2.33012
1197.15	18.6277
1198.14	5.03062
1199.13	5.58581
1200.12	10.3097
1201.11	17.8945
1202.09	1.2481
1203.08	13.3156
1204.07	15.371
1205.06	13.2186
1206.04	10.864
1207.03	-2.6177
1208.02	14.8023
1209	13.6002
1209.99	-5.76565
1210.98	6.75264
1211.96	15.8627
1212.95	17.1865
1213.93	17.2517
1214.92	12.1641
1215.9	25.874
1216.89	21.2834
1217.87	14.8655
1218.85	14.7031
1219.84	15.5905
1220.82	12.599
1221.8	9.02516
1222.78	13.6324
1223.77	20.18
1224.75	13.1149
1225.73	15.4844
1226.71	22.2839
1227.69	25.0733
1228.67	22.0186
1229.65	21.5274
1230.63	28.7368
1231.61	30.9456
1232.59	12.5852
1233.57	26.268
1234.55	37.645
1235.53	33.5133
1236.51	27.3099
1237.49	24.4273
1238.46	28.6526
1239.44	15.7799
1240.42	23.5481
1241.4	34.9547
1242.37	36.0687
1243.35	27.6918
1244.32	30.0199
1245.3	42.1611
1246.28	44.5911
1247.25	39.0256
1248.23	36.7697
1249.2	50.8901
1250.18	55.5709
1251.15	46.192
1252.12	52.719
1252.72	67
1253.73	66
1254.74	60.5
1255.75	66
1256.75	77.5
1257.76	89
1258.77	53
1259.78	82
1260.79	82.5
1261.79	66.5
1262.8	85
1263.81	70.5
1264.81	88.5
1265.82	60
1266.82	81
1267.83	87
1268.83	79
1269.84	58
1270.84	69.5
1271.85	63
1272.85	63.5
1273.86	69
1274.86	65.5
1275.86	71
1276.87	51.5
1277.87	51
1278.87	63.5
1279.88	53.5
1280.88	49
1281.88	76
1282.88	67
1283.88	54.5
1284.88	43.5
1285.88	66.5
1286.89	45
1287.89	46
1288.89	60.5
1289.89	74.5
1290.89	44
1291.89	38.5
1292.88	64.5
1293.88	83
1294.88	50
1295.88	63
1296.88	97.5
1297.88	72
1298.88	60
1299.87	80
1300.87	90
1301.87	76
1302.86	60
1303.86	87
1304.86	83
1305.85	68
1306.85	63
1307.85	76
1308.84	55
1309.84	48.5
1310.83	48.5
1311.83	71.5
1312.82	49.5
1313.81	39
1314.81	50
1315.8	46
1316.8	33
1317.79	45.5
1318.78	63.5
1319.77	45
1320.77	23
1321.76	44
1322.75	47
1323.74	36.5
1324.73	36
1325.72	51.5
1326.72	37
1327.71	32
1328.7	40
1329.69	33
1330.68	31
1331.67	24
1332.66	36
1333.65	45
1334.63	34.5
1335.62	24
1336.61	42
1337.6	27
1338.59	19
1339.58	32
1340.56	52.5
1341.55	29.5
1342.54	25.5
1343.53	38
1344.51	51
1345.5	24
1346.48	16
1347.47	43.5
1348.45	42
1349.44	23
1350.43	32
1351.41	43.5
1352.4	26.5
1353.38	25.5
1354.36	49.5
1355.35	42
1356.33	27.5
1357.31	12
1358.3	31
1359.28	41.5
1360.26	25
1361.25	35.5
1362.23	39.5
1363.21	37
1364.19	25.5
1365.17	24
1366.15	25.5
1367.14	39
1368.12	27.5
1369.1	33.5
1370.08	42
1371.06	18.5
1372.04	34
1373.02	34
1373.99	22.5
1374.97	20.5
1375.95	40
1376.93	24.5
1377.91	16.5
1378.89	-2
1379.86	38
1380.84	36
1381.82	6.5
1382.8	26
1383.77	39
1384.75	15
1385.73	18
1386.7	35
1387.68	22
1388.65	14
1389.63	15
1390.6	24
1391.58	10.5
1392.55	3
1393.53	31.5
1394.5	20
1395.48	19
1396.45	22.5
1397.42	31.5
1398.4	9.5
1399.37	26
1400.34	29
1401.31	32
1402.29	34.5
1403.26	11.5
1404.23	26.5
1405.2	9
1406.17	3
1407.14	9
1408.11	41
1409.08	28.5
1410.05	15
1411.02	24
1411.99	39
1412.96	31.5
1413.93	23
1414.9	28
1415.87	48
1416.84	23
1417.81	14
1418.78	41
1419.74	26
1420.71	22.5
1421.68	27
1422.65	49
1423.61	20
1424.58	28.5
1425.55	48.5
1426.51	45
1427.48	52
1428.44	45
1429.41	59
1430.37	72
1431.34	48
1432.3	74
1433.27	88.5
1434.23	90.5
1435.2	91.5
1436.16	96
1437.12	116.5
1438.09	69
1439.05	84.5
1440.01	107
1440.97	85.5
1441.94	79
1442.9	86
1443.86	76
1444.82	63
1445.78	66.5
1446.74	92.5
1447.7	74
1448.67	60
1449.63	62
1450.59	66
1451.55	46
1452.5	53
1453.46	58
1454.42	59
1455.38	52.5
1456.34	49
1457.3	58
1458.26	60
1459.21	44.5
1460.17	38
1461.13	52
1462.09	23.5
1463.04	13.5
1464	36.5
1464.96	34
1465.91	14
1466.87	23.5
1467.82	34.5
1468.78	27
1469.73	21.5
1470.69	12.5
1471.64	23.5
1472.6	17
1473.55	-2
1474.51	23.5
1475.46	19
1476.41	16.5
1477.37	8
1478.32	24
1479.27	18.5
1480.23	3
1481.18	-11.5
1482.13	6
1483.08	12.5
1484.03	-3
1484.98	13
1485.94	-9
1486.89	-5
1487.84	4
1488.79	9
1489.74	0.5
1490.69	-11
1491.64	3
1492.59	4
1493.54	0.5
1494.48	-1.5
1495.43	15
1496.38	11
1497.33	-6.5
1498.28	-7.5
1499.23	9
1500.17	-8
1501.12	-5.5
1502.07	-5
1503.01	4
1503.96	6.5
1504.91	-12.5
1505.85	12
1506.8	3
1507.74	-5.5
1508.69	2
1509.64	21.5
1510.58	0
1511.52	-8.5
1512.47	-4.5
1513.41	20
1514.36	-14
1515.3	-7
1516.24	10
1517.19	-6
1518.13	-16
1519.07	0.5
1520.01	3
1520.96	-3.5
1521.9	-11.5
1522.84	-8
1523.78	0
1524.72	-12.5
1525.66	-15
1526.6	9.5
1527.55	-8
1528.49	-17.5
1529.43	-3
1530.37	-5
1531.3	-14.5
1532.24	-14.5
1533.18	3
1534.12	-0.5
1535.06	-18
1536	-15.5
1536.94	3.5
1537.88	-5.5
1538.81	-14.5
1539.75	3
1540.69	3
1541.62	-9.5
1542.56	-12
1543.5	3
1544.43	3.5
1545.37	-9
1546.3	-3
1547.24	-9
1548.18	-1.5
1549.11	-25
1550.05	-1
1550.98	1
1551.91	-15
1552.85	-17
1553.78	1.5
1554.72	-13.5
1555.65	-8.5
1556.58	-2.5
1557.51	-2
1558.45	-5
1559.38	-18
1560.31	-3.5
1561.24	-5.5
1562.17	-11
1563.11	-21
1564.04	-7
1564.97	-12
1565.9	-16
1566.83	-7
1567.76	7.5
1568.69	6.5
1569.62	-11
1570.55	-8.5
1571.48	9
1572.41	-11.5
1573.34	-15
1574.26	-1
1575.19	-4
1576.12	-11.5
1577.05	-21.5
1577.98	-4.5
1578.9	-5
1579.83	-21
1580.76	-6
1581.68	4
1582.61	-14
1583.54	-11
1584.46	-11
1585.39	-5
1586.31	-11
1587.24	-21
1588.16	-7.5
1589.09	-16
1590.01	-19.5
1590.94	-7.5
1591.86	-6.5
1592.78	-16
1593.71	-16
1594.63	-10
1595.55	-11
1596.48	-18
1597.4	-11
1598.32	-5.5
1599.24	-23
1600.17	-32
1601.09	7
1602.01	1
1602.93	-20.5
1603.85	-3.5
1604.77	3.5
1605.69	-9
1606.61	-14.5
1607.53	-15.5
1608.45	-1
1609.37	-22
1610.29	-24
1611.21	-7
1612.13	-1
1613.05	-17
1613.96	-11
1614.88	4.5
1615.8	-11
1616.72	-26
1617.63	-3
1618.55	4
1619.47	-27
1620.38	-25
1621.3	1.5
1622.22	-5.5
1623.13	-7
1624.05	-15.5
1624.96	0.5
1625.88	-15.5
1626.79	-14.5
1627.71	-7
1628.62	1
1629.54	-21
1630.45	0.5
1631.37	11
1632.28	-5.5
1633.19	-15
1634.1	-8.5
1635.02	-6.5
1635.93	1
1636.84	-14
1637.75	5.5
1638.67	-10
1639.58	-3.5
1640.49	-7.5
1641.4	9
1642.31	4
1643.22	-7
1644.13	8
1645.04	30
1645.95	9.5
1646.86	15
1647.77	33.5
1648.68	28.5
1649.59	32
1650.5	39
1651.41	67.5
1652.31	51
1653.22	45
1654.13	65
1655.04	59
1655.95	65
1656.85	64
1657.76	70
1658.67	54
1659.57	42
1660.48	51
1661.38	50.5
1662.29	23.5
1663.2	26.5
1664.1	34
1665.01	7
1665.91	-2
1666.81	1
1667.72	9
1668.62	1
1669.53	-14.5
1670.43	-5.5
1671.33	18
1672.24	-16
1673.14	-6
1674.04	1.5
1674.94	-9.5
1675.85	-11.5
1676.75	-8.5
1677.65	-9
1678.55	-20
1679.45	-24
1680.35	-9
1681.25	6.5
1682.15	-6.5
1683.05	-25
1683.95	2.5
1684.85	-14.5
1685.75	-26
1686.65	-21
1687.55	-2
1688.45	-5
1689.35	-27.5
1690.25	-13
1691.15	-5
1692.04	-21
1692.94	-12.5
1693.84	-12
1694.74	-14
1695.63	-12.5
1696.53	-30
1697.43	-14.5
1698.32	-16
1699.22	-27
1700.11	-10
1701.01	-10
1701.9	-23
1702.8	-29
1703.69	-9
1704.59	-10
1705.48	-23
1706.38	-10
1707.27	-11.5
1708.16	-19
1709.06	-25
1709.95	-7
1710.84	-5
1711.74	-11
1712.63	-18
1713.52	-9
1714.41	-24.5
1715.3	-13
1716.2	-23.5
1717.09	-23
1717.98	-29
1718.87	-25
1719.76	-11
1720.65	-9
1721.54	-18
1722.43	-21
1723.32	-9
1724.21	-25.5
1725.1	-28
1725.99	-5
1726.88	-5
1727.76	-17.5
1728.65	-34
1729.54	-7
1730.43	-9
1731.31	-21.5
1732.2	-12
1733.09	-9.5
1733.98	-13.5
1734.86	-10.5
1735.75	-3
1736.63	9.5
1737.52	-10.5
1738.41	-18
1739.29	-2.5
1740.18	-3
1741.06	-18.5
1741.95	-4
1742.83	1
1743.72	-12.5
1744.6	2
1745.48	0
1746.37	-2
1747.25	-16
1748.13	-15
1749.02	-19
1749.9	-9
1750.78	-15
1751.66	-15.5
1752.54	-3
1753.43	-8
1754.31	-16
1755.19	-21
1756.07	-8
1756.95	-13
1757.83	-18
1758.71	-18.5
1759.59	-13
1760.47	-27.5
1761.35	-8.5
1762.23	-3.5
1763.11	-39
1763.99	-35.5
1764.87	-4.5
1765.74	-14.5
1766.62	-27
1767.5	-28.5
1768.38	-8.5
1769.25	-18.5
1770.13	-20.5
1771.01	-14.5
1771.89	-5.5
1772.76	-34.5
1773.64	-27.5
1774.51	-7
1775.39	-16.5
1776.27	-34
1777.14	-20
1778.02	-9
1778.89	-15
1779.76	-29
1780.64	-16
1781.51	-11
1782.39	-40
1783.26	-37
1784.13	-8.5
1785.01	-18
1785.88	-22.5
1786.75	-20.5
1787.63	-15
1788.5	-14
1789.37	-36
1790.24	-10.5
1791.11	-8.5
1791.98	-31.5
1792.86	-23.5
1793.73	-13
1794.6	-14
1795.47	-28.5
1796.34	-7
1797.21	-32
1798.08	-18
1798.95	-32
1799.82	-21
1800.68	-30
1801.55	-35
1802.42	-23
1803.29	-12
1804.16	-16
1805.03	-33
1805.89	-21.5
1806.76	-4.5
1807.63	-31.5
1808.49	-26
1809.36	-7
1810.23	-12
1811.09	-27
1811.96	-29
1812.83	-17
1813.69	-26
1814.56	-31.5
1815.42	-28
1816.29	-19
1817.15	-17.5
1818.02	-25
1818.88	-17
1819.74	-30
1820.61	-28
1821.47	-21
1822.33	-15
1823.2	-26
1824.06	-26.5
1824.92	-32
1825.78	-16
1826.65	-42
1827.51	-23
1828.37	-7
1829.23	-18
1830.09	-32.5
1830.95	-31
1831.81	-22.5
1832.67	-28
1833.53	-33
1834.39	-20
1835.25	-6
1836.11	-27
1836.97	-19.5
1837.83	-11
1838.69	-16
1839.55	-49
1840.41	-18
1841.26	-19
1842.12	-25
1842.98	-30
1843.84	-9.5
1844.69	-31
1845.55	-27.5
1846.41	-20.5
1847.26	-5.5
1848.12	-26
1848.98	-41
1849.83	-6
1850.69	-8.5
1851.54	-19
1852.4	-23
1853.25	-12
1854.11	-18.5
1854.96	-28.5
1855.82	-30
1856.67	-11.5
1857.52	-34
1858.38	-30.5
1859.23	-16.5
1860.08	-20
1860.93	-29
1861.79	-24.5
1862.64	-11
1863.49	-20
1864.34	-35
1865.19	-34
1866.05	-7.5
1866.9	-28
1867.75	-35
1868.6	-12.5
1869.45	-23.5
1870.3	-25
1871.15	-29.5
1872	-13.5
1872.85	-17
1873.7	-39.5
1874.55	-26.5
1875.4	-10
1876.24	-20
1877.09	-32.5
1877.94	-14
1878.79	-21
1879.64	-28.5
1880.48	-32
1881.33	-12
1882.18	-23
1883.02	-33.5
1883.87	-20.5
1884.72	-9
1885.56	-24.5
1886.41	-40
1887.25	-24
1888.1	-10.5
1888.94	-30.5
1889.79	-36.5
1890.63	-17
1891.48	-22.5
1892.32	-23.5
1893.17	-23
1894.01	-15.5
1894.85	-36
1895.7	-41.5
1896.54	-22
1897.38	-20
1898.23	-21
1899.07	-28
1899.91	-18
1900.75	-19.5
1901.59	-24.5
1902.44	-13
1903.28	-5.5
1904.12	-32
1904.96	-43
1905.8	-14.5
1906.64	-21.5
1907.48	-29
1908.32	-27
1909.16	-15
1910	-18.5
1910.84	-30
1911.68	-20.5
1912.51	-4.5
1913.35	-29
1914.19	-39.5
1915.03	-16.5
1915.87	-13
1916.7	-35
1917.54	-28.5
1918.38	-18
1919.21	-25
1920.05	-27.5
1920.89	-24.5
1921.72	-9
1922.56	-20.5
1923.4	-33
1924.23	-18
1925.07	-10.5
1925.9	-44.5
1926.74	-22
1927.57	-12
1928.41	-27
1929.24	-45
1930.07	-11.5
1930.91	-1
1931.74	-22.5
1932.57	-39.5
1933.41	-11.5
1934.24	-10
1935.07	-22.5
1935.9	-24.5
1936.74	-15
1937.57	-19
1938.4	-32.5
1939.23	-21.5
1940.06	-18
1940.89	-32.5
1941.72	-44
1942.55	-12
1943.38	-14
1944.21	-45
1945.04	-15.5
1945.87	-20.5
1946.7	-24
1947.53	-24
1948.36	-19
1949.19	-5
1950.02	-42
1950.84	-37.5
1951.67	-22.5
1952.5	-15
1953.33	-35
1954.15	-22
1954.98	-15
1955.81	-22.5
1956.64	-32
1957.46	-20
1958.29	-27.5
1959.11	-30.5
1959.94	-28.5
1960.76	-2.5
1961.59	-32
1962.41	-46
1963.24	-13.5
1964.06	-21
1964.89	-28.5
1965.71	-14
1966.53	-18
1967.36	-12.5
1968.18	-33
1969	-36
1969.83	-15
1970.65	-17
1971.47	-32
1972.3	-19
1973.12	-6.5
1973.94	-32
1974.76	-29
1975.58	-12
1976.4	-26
1977.22	-25.5
1978.04	-40
1978.86	-19
1979.68	-32
1980.5	-43.5
1981.32	-22
1982.14	-28
1982.96	-23.5
1983.78	-32
1984.6	-16
1985.42	-29
1986.24	-39
1987.06	-33
1987.87	-21
1988.69	-29
1989.51	-38
1990.32	-12
1991.14	-18
1991.96	-34.5
1992.78	-29.5
1993.59	-15
1994.41	-4
1995.22	-35
1996.04	-29
1996.85	-9.5
1997.67	-25.9238
1998.48	-29.4231
1999.3	-27.778
2000.11	-19.219
2000.93	-38.112
2001.74	-24.3029
2002.56	-14.1467
2003.37	-17.2407
2004.18	-35.9801
2004.99	-30.4324
2005.81	-12.7406
2006.62	-24.374
2007.43	-42.9987
2008.25	-18.6426
2009.06	-14.6437
2009.87	-24.3995
2010.68	-28.8651
2011.49	-13.1082
2012.3	-22.4756
2013.11	-29.3601
2013.92	-26.9949
2014.73	-3.89029
2015.54	-20.0596
2016.35	-34.106
2017.16	-22.2699
2017.97	-17.2594
2018.78	-32.4092
2019.59	-28.4693
2020.4	-11.8501
2021.21	-18.2043
2022.02	-36.9551
2022.83	-25.4199
2023.63	-14.9419
2024.44	-24.6392
2025.25	-34.4487
2026.06	-18.2076
2026.86	-18.9542
2027.67	-21.3113
2028.48	-25.4462
2029.28	-16.0956
2030.09	-14.1427
2030.89	-23.1873
2031.7	-34.1123
2032.5	-28.5614
2033.31	-19.5386
2034.11	-29.5585
2034.92	-16.5062
2035.72	-19.6599
2036.53	-26.5494
2037.33	-20.0725
2038.14	-21.2827
2038.94	-18.2357
2039.74	-19.3002
2040.55	-19.9134
2041.35	-27.7097
2042.15	-26.1237
2042.95	-28.0864
2043.76	-14.3208
2044.56	-10.0284
2045.36	-23.0814
2046.16	-16.7604
2046.96	-25.9603
2047.76	-29.1975
2048.56	-19.8452
2049.37	-20.3097
2050.17	-24.778
2050.97	-26.2547
2051.77	-20.9415
2052.57	-20.043
2053.36	-24.5777
2054.16	-22.6543
2054.96	-11.4508
2055.76	-17.0668
2056.56	-30.4722
2057.36	-19.2445
2058.16	-15.7698
2058.96	-18.8167
2059.75	-24.6493
2060.55	-14.6326
2061.35	-9.18936
2062.14	-22.7949
2062.94	-27.0475
2063.74	-16.4042
2064.53	-39.5526
2065.33	-42.1287
2066.13	-27.3913
2066.92	-15.1693
2067.72	-12.9033
2068.51	-20.0792
2069.31	-16.2594
2070.1	-13.2098
2070.9	-18.4767
2071.69	-20.4699
2072.49	-5.22149
2073.28	2.46192
2074.07	-22.633
2074.87	-31.9415
2075.66	-2.53503
2076.45	-9.15845
2077.25	-20.2071
2078.04	-22.8538
2078.83	-7.57795
2079.62	-9.80615
2080.41	-30.1276
2081.21	-17.3322
2081.38	-13
2082.2	7
2083.03	-23
2083.86	-29
2084.68	-11
2085.51	-0.5
2086.34	-34.5
2087.16	-16
2087.99	-10
2088.81	-6.5
2089.64	-23
2090.46	-1.5
2091.29	-11
2092.11	-19
2092.94	-37
2093.76	-1
2094.58	-5
2095.41	-31
2096.23	-40
2097.06	-35
2097.88	-5.5
2098.7	-23.5
2099.53	-7.5
2100.35	1.5
2101.17	-20
2101.99	-30.5
2102.81	-3
2103.64	-19
2104.46	-27
2105.28	-10.5
2106.1	-6
2106.92	-18
2107.74	-14
2108.56	-7.5
2109.38	-3.5
2110.2	-25.5
2111.03	-17
2111.84	-9
2112.66	-7.5
2113.48	-31.5
2114.3	-9
2115.12	-7
2115.94	-23
2116.76	-10
2117.58	-17
2118.4	-10
2119.22	-12.5
2120.03	-30
2120.85	-4
2121.67	-22
2122.49	-25
2123.3	-0.5
2124.12	-2.5
2124.94	-26.5
2125.76	-22.5
2126.57	-10
2127.39	-5.5
2128.2	-46
2129.02	-46
2129.83	-9
2130.65	-11.5
2131.47	-20.5
2132.28	-17
2133.1	-5
2133.91	-20
2134.73	-14
2135.54	-5.5
2136.35	3.5
2137.17	-17
2137.98	-30
2138.79	-11
2139.61	-7
2140.42	-30
2141.23	-20
2142.05	3
2142.86	-17
2143.67	-14
2144.48	3.5
2145.3	-13.5
2146.11	-26
2146.92	-24.5
2147.73	-4
2148.54	-20
2149.35	-26
2150.16	-27
2150.97	-3
2151.79	-23.5
2152.6	-18
2153.41	-2
2154.22	-9.5
2155.02	-23
2155.83	-30.5
2156.64	-11.5
2157.45	-23
2158.26	-21
2159.07	-8.5
2159.88	-25
2160.69	-37
2161.5	-15
2162.3	-11.5
2163.11	-2
2163.92	-19
2164.73	-19
2165.53	-6.5
2166.34	-11
2167.15	-42
2167.95	-14.5
2168.76	-9
2169.57	-38
2170.37	-14.5
2171.18	-14
2171.98	-5.5
2172.79	-28.5
2173.59	-20.5
2174.4	-27
2175.2	-22.5
2176.01	-39
2176.81	-12
2177.62	-16.5
2178.42	-23.5
2179.22	-18.5
2180.03	-3.5
2180.83	-14
2181.63	-21.5
2182.44	-8
2183.24	-5.5
2184.04	-20
2184.85	-35.5
2185.65	-9
2186.45	-28
2187.25	-32
2188.05	-23
2188.86	-6
2189.66	-21.5
2190.46	-32
2191.26	-36
2192.06	-16
2192.86	-29.5
2193.66	-29.5
2194.46	-19
2195.26	-24
2196.06	-37
2196.86	-24
2197.66	-15
2198.46	-19
2199.26	-37
2200.06	-29.5
2200.85	-12
2201.65	-30.5
2202.45	-28.5
2203.25	-21
2204.05	-25
2204.84	-30.5
2205.64	-17.5
2206.44	-18.5
2207.24	-40
2208.03	-32
2208.83	-23
2209.63	-20
2210.42	-29.5
2211.22	-38.5
2212.01	-18.5
2212.81	-25
2213.61	-32
2214.4	-21
2215.2	-19.5
2215.99	-20
2216.79	-46.5
2217.58	-18.5
2218.37	-34
2219.17	-38
2219.96	-36.5
2220.76	-17.5
2221.55	-28.5
2222.34	-61
2223.14	-33
2223.93	-19.5
2224.72	-25
2225.51	-30.5
2226.31	-33
2227.1	-17
2227.89	-44
2228.68	-23
2229.47	-23
2230.27	-31
2231.06	-47
2231.85	-19
2232.64	-12.5
2233.43	-37
2234.22	-38.5
2235.01	-43
2235.8	-23.5
2236.59	-19.5
2237.38	-36.5
2238.17	-14
2238.96	-23.5
2239.75	-35
2240.54	-26
2241.33	-19.5
2242.11	-34.5
2242.9	-32
2243.69	-19
2244.48	-22.5
2245.27	-39
2246.05	-27.5
2246.84	-8
2247.63	-58
2248.41	-38.5
2249.2	-25
2249.99	-18
2250.77	-39
2251.56	-31
2252.35	-26
2253.13	-43
2253.92	-47
2254.7	-38.5
2255.49	-12
2256.27	-31
2257.06	-42
2257.84	-24.5
2258.63	-32
2259.41	-25
2260.2	-27
2260.98	-23
2261.76	-41
2262.55	-46
2263.33	-34
2264.11	-30
2264.9	-40
2265.68	-37
2266.46	-28
2267.24	-26
2268.03	-39.5
2268.81	-37
2269.59	-27.5
2270.37	-29
2271.15	-31
2271.93	-26
2272.71	-17
2273.5	-40
2274.28	-39
2275.06	-26.5
2275.84	-21.5
2276.62	-27.5
2277.4	-29.5
2278.18	-34
2278.96	-34
2279.73	-35
2280.51	-28
2281.29	-17.5
2282.07	-31
2282.85	-41.5
2283.63	-41
2284.41	-37
2285.18	-34.5
2285.96	-30
2286.74	-23.5
2287.52	-29
2288.29	-28
2289.07	-29
2289.85	-29
2290.62	-45
2291.4	-35
2292.18	-16
2292.95	-26.5
2293.73	-23.5
2294.5	-29
2295.28	-31
2296.05	-30
2296.83	-44.5
2297.6	-29
2298.38	-37
2299.15	-34
2299.93	-36.5
2300.7	-21.5
2301.48	-31
2302.25	-35.5
2303.02	-20.5
2303.8	-37
2304.57	-39
2305.34	-36
2306.11	-25
2306.89	-27
2307.66	-39
2308.43	-43.5
2309.2	-14.5
2309.97	-30
2310.75	-35
2311.52	-34
2312.29	-33.5
2313.06	-36
2313.83	-39
2314.6	-36
2315.37	-34
2316.14	-49
2316.91	-30
2317.68	-27
2318.45	-50
2319.22	-34.5
2319.99	-31
2320.76	-31
2321.53	-22.5
2322.3	-41.5
2323.06	-24
2323.83	-31
2324.6	-30
2325.37	-47.5
2326.14	-25
2326.9	-41.5
2327.67	-40
2328.44	-21
2329.21	-27
2329.97	-32
2330.74	-31
2331.5	-29
2332.27	-26.5
2333.04	-37
2333.8	-20.5
2334.57	-21
2335.33	-36
2336.1	-36
2336.86	-30
2337.63	-32
2338.39	-27
2339.16	-42.5
2339.92	-22
2340.69	-35
2341.45	-44
2342.21	-42
2342.98	-19.5
2343.74	-38
2344.5	-31.5
2345.27	-16.5
2346.03	-23.5
2346.79	-41
2347.55	-37
2348.31	-23
2349.08	-36
2349.84	-42
2350.6	-27.5
2351.36	-24
2352.12	-46
2352.88	-34
2353.64	-22
2354.41	-28
2355.17	-37.5
2355.93	-30.5
2356.69	-19
2357.45	-49
2358.21	-38
2358.96	-11
2359.72	-17
2360.48	-37.5
2361.24	-31.5
2362	-19.5
2362.76	-20
2363.52	-37.5
2364.28	-32.5
2365.03	-28
2365.79	-40
2366.55	-32
2367.31	-31
2368.06	-38
2368.82	-34
2369.58	-34.5
2370.33	-26
2371.09	-31.5
2371.85	-37
2372.6	-31
2373.36	-22.5
2374.11	-16.5
2374.87	-42
2375.62	-36.5
2376.38	-24
2377.13	-29
2377.89	-30
2378.64	-24
2379.4	-40
2380.15	-48
2380.9	-32.5
2381.66	-25
2382.41	-30.5
2383.16	-34
2383.92	-30
2384.67	-23
2385.42	-39
2386.18	-31.5
2386.93	-15.5
2387.68	-29
2388.43	-51.5
2389.18	-26
2389.94	-17
2390.69	-34
2391.44	-38.5
2392.19	-22
2392.94	-19
2393.69	-51
2394.44	-31
2395.19	-7
2395.94	-43
2396.69	-32.5
2397.44	-29.5
2398.19	-32
2398.94	-42
2399.69	-38
2400.44	-12
2401.19	-27
2401.93	-34.5
2402.68	-29
2403.43	-25
2404.18	-43
2404.93	-23
2405.67	-36.5
2406.42	-25
2407.17	-39
2407.92	-28.5
2408.66	-15
2409.41	-32
2410.16	-39
2410.9	-34
2411.65	-16
2412.39	-37
2413.14	-30.5
2413.89	-33
2414.63	-37
2415.38	-39
2416.12	-32
2416.86	-19.5
2417.61	-26
2418.35	-30
2419.1	-32.5
2419.84	-19.5
2420.59	-32
2421.33	-33
2422.07	-30.5
2422.82	-24
2423.56	-31
2424.3	-34
2425.04	-25
2425.79	-28.5
2426.53	-40
2427.27	-22
2428.01	-20
2428.75	-39.5
2429.5	-39
2430.24	-24.5
2430.98	-31.5
2431.72	-35.5
2432.46	-37
2433.2	-12
2433.94	-28
2434.68	-27
2435.42	-40
2436.16	-22
2436.9	-43
2437.64	-46
2438.38	-26.5
2439.12	-30.5
2439.86	-39
2440.59	-30
2441.33	-30.5
2442.07	-20
2442.81	-48
2443.55	-29
2444.28	-19
2445.02	-50
2445.76	-25
2446.5	-21.5
2447.23	-31
2447.97	-28
2448.71	-33
2449.44	-22
2450.18	-39
2450.91	-40
2451.65	-19
2452.39	-39
2453.12	-37
2453.86	-30.5
2454.59	-25
2455.33	-28.5
2456.06	-46
2456.79	-27
2457.53	-17
2458.26	-42
2459	-49
2459.73	-20.5
2460.46	-12.5
2461.2	-35.5
2461.93	-32.5
2462.66	-23.5
2463.4	-22.5
2464.13	-41.5
2464.86	-18
2465.59	-21.5
2466.32	-44
2467.06	-31.5
2467.79	-19
2468.52	-25
2469.25	-42.5
2469.98	-41
2470.71	-37
2471.44	-38
2472.17	-32.5
2472.9	-42
2473.63	-21
2474.36	-39
2475.09	-41.5
2475.82	-25.5
2476.55	-30
2477.28	-41.5
2478.01	-37
2478.74	-19
2479.47	-36
2480.19	-36.5
2480.92	-33
2481.65	-25
2482.38	-38
2483.11	-35.5
2483.83	-17.5
2484.56	-38
2485.29	-46
2486.01	-29.5
2486.74	-29
2487.47	-32
2488.19	-49.5
2488.92	-25
2489.65	-18
2490.37	-36
2491.1	-43.5
2491.82	-30.5
2492.55	-34
2493.27	-34
2494	-35
2494.72	-33
2495.45	-22.5
2496.17	-38
2496.89	-31
2497.62	-28
2498.34	-26.5
2499.06	-45.5
2499.79	-13
2500.51	-33
2501.23	-40
2501.96	-32.5
2502.68	-26
2503.4	-49
2504.12	-35
2504.84	-35
2505.57	-29
2506.29	-27
2507.01	-38.5
2507.73	-16
2508.45	-41
2509.17	-49
2509.89	-31.5
2510.61	-24
2511.33	-38
2512.05	-33.5
2512.77	-23
2513.49	-25
2514.21	-28.5
2514.93	-36.5
2515.65	-11
2516.37	-44
2517.09	-43.5
2517.81	-14.5
2518.52	-10.5
2519.24	-34
2519.96	-32
2520.68	-29
2521.4	-25.5
2522.11	-37
2522.83	-35.5
2523.55	-20.5
2524.26	-39
2524.98	-44.5
2525.7	-15.5
2526.41	-23
2527.13	-41
2527.84	-32
2528.56	-15.5
2529.28	-46
2529.99	-34.5
2530.71	-30.5
2531.42	-24
2532.14	-35.5
2532.85	-41
2533.56	-30.5
2534.28	-43
2534.99	-34
2535.71	-36
2536.42	-29
2537.13	-30
2537.85	-32
2538.56	-20.5
2539.27	-22
2539.98	-43
2540.7	-37
2541.41	-13
2542.12	-34.5
2542.83	-42
2543.54	-38.5
2544.26	-24.5
2544.97	-21
2545.68	-25
2546.39	-41
2547.1	-26.5
2547.81	-34.5
2548.52	-35.5
2549.23	-21.5
2549.94	-25
2550.65	-47.5
2551.36	-38.5
2552.07	-28
2552.78	-28
2553.49	-33
2554.2	-30
2554.91	-16
2555.61	-22.5
2556.32	-26
2557.03	-24.5
2557.74	-24
2558.45	-44
2559.15	-26.5
2559.86	-36
2560.57	-33.5
2561.27	-40
2561.98	-24
2562.69	-27
2563.39	-28
2564.1	-43.5
2564.81	-19
2565.51	-32
2566.22	-37
2566.92	-25
2567.63	-18
2568.33	-54
2569.04	-32.5
2569.74	-17
2570.45	-17
2571.15	-38
2571.86	-31.5
2572.56	-21
2573.26	-24
2573.97	-35
2574.67	-28.5
2575.37	-24
2576.08	-33
2576.78	-37
2577.48	-21
2578.19	-34.5
2578.89	-37
2579.59	-44.5
2580.29	-13
2580.99	-24.5
2581.69	-47
2582.4	-25
2583.1	-21.5
2583.8	-43
2584.5	-33.5
2585.2	-25.5
2585.9	-26
2586.6	-33
2587.3	-37.5
2588	-29
2588.7	-30.5
2589.4	-43
2590.1	-28.5
2590.8	-25
2591.5	-36.5
2592.19	-49.5
2592.89	-14
2593.59	-20.5
2594.29	-33
2594.99	-35
2595.68	-25
2596.38	-37
2597.08	-26.5
2597.78	-32.5
2598.47	-22.5
2599.17	-53
2599.87	-33.5
2600.56	-24.5
2601.26	-28.5
2601.96	-37
2602.65	-24.5
2603.35	-30
2604.04	-32.5
2604.74	-31
2605.43	-45
2606.13	-26
2606.82	-45.5
2607.52	-30.5
2608.21	-20
2608.91	-21.5
2609.6	-41
2610.29	-30
2610.99	-21
2611.68	-30.5
2612.37	-35
2613.07	-26.5
2613.76	-23.5
2614.45	-49
2615.15	-41
2615.84	-20
2616.53	-32
2617.22	-37
2617.91	-33.5
2618.6	-23
2619.3	-36.5
2619.99	-40.5
2620.68	-18
2621.37	-27
2622.06	-42.5
2622.75	-24.5
2623.44	-14.5
2624.13	-32.5
2624.82	-44.5
2625.51	-29
2626.2	-34
2626.89	-32.5
2627.58	-33
2628.27	-43
2628.96	-30
2629.64	-38.5
2630.33	-22
2631.02	-21.5
2631.71	-32
2632.4	-51.5
2633.08	-25
2633.77	-30
2634.46	-34
2635.15	-53
2635.83	-19
2636.52	-38
2637.21	-43
2637.89	-21.5
2638.58	-30
2639.26	-38
2639.95	-46.5
2640.64	-35.5
2641.32	-45
2642.01	-29
2642.69	-39.5
2643.38	-27.5
2644.06	-23
2644.75	-39
2645.43	-27.5
2646.11	-13.5
2646.8	-38
2647.48	-37
2648.16	-34
2648.85	-11
2649.53	-48
2650.21	-29
2650.9	-27
2651.58	-33
2652.26	-46
2652.94	-28
2653.63	-13.5
2654.31	-32
2654.99	-41
2655.67	-32.5
2656.35	-29.5
2657.03	-49
2657.71	-32
2658.39	-15
2659.08	-35.5
2659.76	-43
2660.44	-30
2661.12	-28
2661.8	-44
2662.48	-37
2663.15	-37.5
2663.83	-24
2664.51	-40
2665.19	-22.5
2665.87	-7
2666.55	-32
2667.23	-32
2667.91	-35.5
2668.58	-15.5
2669.26	-30
2669.94	-31.5
2670.62	-32
2671.29	-19
2671.97	-41
2672.65	-26
2673.32	-24
2674	-34.5
2674.68	-38
2675.35	-20.5
2676.03	-21
2676.7	-33.5
2677.38	-30.5
2678.06	-21
2678.73	-22.5
2679.41	-36
2680.08	-18
2680.75	-32
2681.43	-37
2682.1	-36.5
2682.78	-28
2683.45	-21
2684.12	-36
2684.8	-43.5
2685.47	-33
2686.14	-37
2686.82	-21.5
2687.49	-27.5
2688.16	-18
2688.83	-34
2689.51	-36
2690.18	-6
2690.85	-16
2691.52	-30.5
2692.19	-25.5
2692.86	-21
2693.54	-45.876
2694.21	-37.5764
2694.88	-33.0294
2695.55	-39.5944
2696.22	-28.3985
2696.89	-48.1652
2697.56	-17.6373
2698.23	-31.3336
2698.9	-34.7272
2699.57	-30.0125
2700.24	-18.5222
2700.91	-34.4507
2701.57	-35.365
2702.24	-24.2541
2702.91	-12.044
2703.58	-38.5347
2704.25	-33.3379
2704.92	-20.3381
2705.58	-37.6688
2706.25	-30.2195
2706.92	-22.5608
2707.58	-35.0999
2708.25	-38.3769
2708.92	-35.6752
2709.59	-23.5068
2710.25	-15.7235
2710.92	-35.0379
2711.58	-36.2069
2712.25	-14.3974
2712.92	-34.6419
2713.58	-35.2021
2714.25	-32.1516
2714.91	-22.5848
2715.58	-37.5056
2716.24	-31.8763
2716.91	-20.9767
2717.57	-23.7
2718.23	-42.5543
2718.9	-34.8459
2719.56	-21.5804
2720.23	-27.6405
2720.89	-30.6022
2721.55	-25.5521
2722.22	-14.6282
2722.88	-24.7487
2723.54	-28.743
2724.2	-19.0743
2724.87	-17.0447
2725.53	-24.4148
2726.19	-31.3599
2726.85	-16.8769
2727.51	-20.8241
2728.18	-25.2466
2728.84	-25.0691
2729.5	-25.169
2730.16	-25.3889
2730.82	-26.6288
2731.48	-22.1099
2732.14	-20.7828
2732.8	-27.5983
2733.46	-37.0252
2734.12	-29.3594
2734.78	-26.3865
2735.44	-21.4335
2736.1	-26.8616
2736.76	-22.3244
2737.42	-29.0892
2738.07	-25.3676
2738.73	-28.6556
2739.39	-26.4131
2740.05	-25.2621
2740.71	-23.3448
2741.37	-24.0456
2742.02	-24.8996
2742.68	-23.1929
2743.34	-23.6655
2743.99	-30.5416
2744.65	-20.7691
2745.31	-14.611
2745.96	-17.7977
2746.62	-25.1629
2747.28	-34.4162
2747.93	-14.8797
2748.59	-17.1447
2749.24	-29.8374
2749.9	-22.6827
2750.55	-16.7249
2751.21	-20.4503
2751.86	-16.9706
2752.52	-13.5741
2753.17	-22.1273
2753.83	-20.8612
2754.48	-17.4087
2755.14	-18.8567
2755.79	-18.0621
2756.44	-26.7328
2757.1	-23.3194
2757.75	-14.5591
2758.4	-20.467
2759.05	-22.9347
2759.71	-19.1172
2760.36	-21.6567
2761.01	-17.3549
2761.66	-20.239
2762.32	-9.05928
2762.97	-21.1229
2763.63	-22.5
2764.32	-34
2765.01	-14.5
2765.69	-8.5
2766.38	-19.5
2767.07	-21.5
2767.75	-16
2768.44	-12
2769.12	-25
2769.81	-16
2770.49	2
2771.18	-11
2771.87	-31.5
2772.55	-7.5
2773.24	-14
2773.92	-26
2774.6	-20.5
2775.29	-10
2775.97	-24
2776.66	-23
2777.34	-1.5
2778.03	-16
2778.71	-15
2779.39	-25
2780.08	-15.5
2780.76	-18
2781.44	-26
2782.12	-7
2782.81	-18
2783.49	-22
2784.17	-24.5
2784.85	-15
2785.54	-11
2786.22	-7
2786.9	-27.5
2787.58	-21.5
2788.26	-18
2788.94	-20
2789.63	-13.5
2790.31	-23
2790.99	-36
2791.67	-31.5
2792.35	-5.5
2793.03	-7
2793.71	-18
2794.39	-11.5
2795.07	-30
2795.75	-10
2796.43	-17
2797.11	-20.5
2797.79	-6.5
2798.46	-17
2799.14	-30.5
2799.82	-5
2800.5	-24
2801.18	-17
2801.86	-29.5
2802.54	-5.5
2803.21	-20.5
2803.89	-28.5
2804.57	-13.5
2805.25	-4
2805.92	-37
2806.6	-23
2807.28	-9.5
2807.95	-7
2808.63	-32
2809.31	-26.5
2809.98	-10
2810.66	3
2811.34	-25.5
2812.01	-18.5
2812.69	-8.5
2813.36	-15.5
2814.04	-29
2814.71	-8
2815.39	-16
2816.06	-18
2816.74	-22
2817.41	-15
2818.09	-20.5
2818.76	-33
2819.44	-12
2820.11	-9
2820.78	-20
2821.46	-23.5
2822.13	-11
2822.8	-24
2823.48	-26.5
2824.15	-35.5
2824.82	-15
2825.49	-23.5
2826.17	-26
2826.84	-18.5
2827.51	-14
2828.18	-20.5
2828.86	-31
2829.53	-11
2830.2	-6
2830.87	-36
2831.54	-18.5
2832.21	-9
2832.88	-22
2833.55	-19.5
2834.22	-11
2834.9	-13.5
2835.56	-35
2836.23	-11.5
2836.91	-17.5
2837.57	-21
2838.24	-25
2838.91	-19.5
2839.58	-14
2840.25	-21.5
2840.92	-15.5
2841.59	-25
2842.26	-11
2842.93	-25
2843.6	-26
2844.26	-4
2844.93	-17
2845.6	-18.5
2846.27	-9.5
2846.93	-29
2847.6	-15.5
2848.27	-15
2848.94	-1.5
2849.6	-7
2850.27	-39
2850.94	-8.5
2851.6	10
2852.27	-19
2852.94	-24.5
2853.6	1.5
2854.27	-10
2854.93	-7
2855.6	-7
2856.26	6.5
2856.93	-12
2857.59	-19
2858.26	-15.5
2858.92	0.5
2859.59	-17
2860.25	-17
2860.92	-16.5
2861.58	-9
2862.24	-23
2862.91	-25.5
2863.57	-5
2864.23	-18
2864.9	-13
2865.56	-29
2866.22	-12
2866.89	-14.5
2867.55	-19
2868.21	-14.5
2868.87	-4
2869.54	-26
2870.2	-17
2870.86	-17
2871.52	-14.5
2872.18	-19.5
2872.84	-23
2873.51	-5
2874.17	-19.5
2874.83	-22
2875.49	-22
2876.15	-13
2876.81	-8.5
2877.47	-28
2878.13	-29
2878.79	-17.5
2879.45	-27
2880.11	-22.5
2880.77	-13.5
2881.43	-21
2882.09	-21
2882.75	-10
2883.4	-8
2884.06	-25.5
2884.72	-15
2885.38	8
2886.04	-23
2886.7	-22
2887.35	-17
2888.01	-10.5
2888.67	-14
2889.33	-32.5
2889.98	-16.5
2890.64	-11
2891.3	-28
2891.95	-26
2892.61	-2.5
2893.27	-26
2893.92	-22
2894.58	-20
2895.23	-18
2895.89	-26.5
2896.55	-21.5
2897.2	-19
2897.86	-10.5
2898.51	-23
2899.17	-27.5
2899.82	-8.5
2900.48	-36
2901.13	-20.5
2901.79	-22.5
2902.44	-13.5
2903.09	-39
2903.75	-38
2904.4	-22
2905.05	-30
2905.71	-28
2906.36	-33
2907.01	-15
2907.67	-31
2908.32	-19
2908.97	-8
2909.63	-6.5
2910.28	-15
2910.93	-28
2911.58	-11
2912.23	-26
2912.88	-15.5
2913.54	-25.5
2914.19	-11
2914.84	-23
2915.49	-24.5
2916.14	-6.5
2916.79	-19
2917.44	-22
2918.09	-14.5
2918.74	-17.5
2919.39	-36
2920.04	-31.5
2920.69	-30.5
2921.34	-20
2921.99	-29
2922.64	-29.5
2923.29	-17.5
2923.94	-15
2924.59	-18.5
2925.23	-26
2925.88	-11
2926.53	-25
2927.18	-27.5
2927.83	-25.5
2928.48	-31
2929.12	-52
2929.77	-31.5
2930.42	-11
2931.07	-17.5
2931.71	-34
2932.36	-22
2933.01	-12
2933.65	-39
2934.3	-33
2934.95	-18.5
2935.59	-17
2936.24	-24
2936.88	-24
2937.53	-23.5
2938.17	-19.5
2938.82	-24.5
2939.46	-14
2940.11	-17
2940.75	-30
2941.4	-24.5
2942.04	-11.5
2942.69	-23
2943.33	-27
2943.98	-26
2944.62	-17.5
2945.26	-37
2945.91	-22.5
2946.55	-20
2947.19	-26
2947.84	-44
2948.48	-23
2949.12	-23.5
2949.76	-19
2950.41	-36.5
2951.05	-38.5
2951.69	-22.5
2952.33	-30
2952.98	-31
2953.62	-33
2954.26	-39
2954.9	-50
2955.54	-30
2956.18	-18.5
2956.82	-20
2957.46	-40
2958.1	-27.5
2958.74	-26
2959.38	-39
2960.02	-28
2960.66	-25.5
2961.3	-24
2961.94	-30
2962.58	-41
2963.22	-14.5
2963.86	-19
2964.5	-30.5
2965.14	-22.5
2965.78	-21
2966.42	-32
2967.05	-33.5
2967.69	-36
2968.33	-36
2968.97	-33
2969.61	-40
2970.24	-12
2970.88	-39
2971.52	-37
2972.15	-24.5
2972.79	-26
2973.43	-38
2974.06	-30
2974.7	-28
2975.34	-32
2975.97	-54
2976.61	-25.5
2977.24	-21.5
2977.88	-32
2978.52	-56
2979.15	-61
2979.79	-25
2980.42	-42
2981.06	-40
2981.69	-27
2982.32	-33
2982.96	-49
2983.59	-31
2984.23	-26
2984.86	-31
2985.49	-40
2986.13	-29.5
2986.76	-26.5
2987.39	-25
2988.03	-33.5
2988.66	-40
2989.29	-39
2989.93	-33
2990.56	-42
2991.19	-21
2991.82	-19
2992.45	-40.5
2993.09	-20
2993.72	-27
2994.35	-39
2994.98	-31
2995.61	-14
2996.24	-27
2996.87	-64
2997.5	-35
2998.14	-22.5
2998.77	-33
2999.4	-41.5
3000.03	-31.5
3000.66	-18
3001.29	-23
3001.91	-32
3002.54	-20
3003.17	-49
3003.8	-56
3004.43	-24.5
3005.06	-24
3005.69	-33.5
3006.32	-33.5
3006.95	-26
3007.57	-29
3008.2	-32
3008.83	-28
3009.46	-28
3010.08	-44
3010.71	-41
3011.34	-26
3011.97	-20.5
3012.59	-46
3013.22	-34.5
3013.85	-22.5
3014.47	-34
3015.1	-41
3015.72	-27.5
3016.35	-19.5
3016.98	-35
3017.6	-53
3018.23	-28.5
3018.85	-21
3019.48	-46
3020.1	-34.5
3020.73	-29
3021.35	-47
3021.98	-32
3022.6	-41
3023.23	-21.5
3023.85	-37
3024.47	-50
3025.1	-33
3025.72	-24
3026.34	-27
3026.97	-39.5
3027.59	-47
3028.21	-53
3028.84	-50
3029.46	-22.5
3030.08	-32
3030.7	-51
3031.32	-59
3031.95	-27
3032.57	-24
3033.19	-27.5
3033.81	-39
3034.43	-20
3035.05	-34
3035.68	-44
3036.3	-32
3036.92	-33.5
3037.54	-42.5
3038.16	-35.5
3038.78	-25.5
3039.4	-24
3040.02	-33
3040.64	-33.5
3041.26	-24
3041.88	-32.5
3042.5	-44
3043.12	-27.5
3043.73	-26
3044.35	-33.5
3044.97	-45
3045.59	-30
3046.21	-24.5
3046.83	-52
3047.44	-35
3048.06	-28.5
3048.68	-55
3049.3	-38.5
3049.92	-31
3050.53	-27.5
3051.15	-34.5
3051.77	-66
3052.38	-32
3053	-29
3053.62	-48
3054.23	-26
3054.85	-26.5
3055.46	-42
3056.08	-43.5
3056.7	-21.5
3057.31	-27
3057.93	-34
3058.54	-41.5
3059.16	-38
3059.77	-37
3060.39	-30.5
3061	-34
3061.61	-22
3062.23	-46
3062.84	-38
3063.46	-30.5
3064.07	-34
3064.68	-47
3065.3	-41.5
3065.91	-25
3066.52	-22
3067.14	-35.5
3067.75	-30.5
3068.36	-17
3068.98	-35.5
3069.59	-37
3070.2	-31
3070.81	-28
3071.42	-42
3072.04	-35
3072.65	-34
3073.26	-33.5
3073.87	-32
3074.48	-34.5
3075.09	-34
3075.7	-67
3076.31	-45
3076.92	-16.5
3077.53	-33
3078.14	-49
3078.75	-52
3079.36	-27
3079.97	-30
3080.58	-55
3081.19	-23.5
3081.8	-21.5
3082.41	-49
3083.02	-43
3083.63	-19.5
3084.24	-34
3084.84	-40
3085.45	-35
3086.06	-28
3086.67	-25
3087.28	-39
3087.88	-29
3088.49	-29
3089.1	-41.5
3089.71	-34
3090.31	-23.5
3090.92	-28
3091.53	-33
3092.13	-42
3092.74	-22
3093.34	-50
3093.95	-36
3094.56	-31.5
3095.16	-27
3095.77	-36
3096.37	-29.5
3096.98	-20.5
3097.58	-30
3098.19	-40
3098.79	-40
3099.4	-27
3100	-53
3100.61	-45
3101.21	-25.5
3101.81	-42
3102.42	-33
3103.02	-32
3103.63	-27
3104.23	-38
3104.83	-35
3105.43	-27.5
3106.04	-20
3106.64	-50
3107.24	-37.5
3107.85	-25.5
3108.45	-40
3109.05	-33
3109.65	-36.5
3110.25	-26.5
3110.86	-40
3111.46	-44
3112.06	-30.5
3112.66	-36
3113.26	-44.5
3113.86	-38.5
3114.46	-26
3115.06	-42
3115.66	-46.5
3116.26	-24.5
3116.86	-20
3117.46	-35.5
3118.06	-47
3118.66	-32
3119.26	-35
3119.86	-25
3120.46	-43.5
3121.06	-29
3121.66	-20.5
3122.26	-53.5
3122.85	-40.5
3123.45	-14
3124.05	-33
3124.65	-48.5
3125.25	-30
3125.84	-25
3126.44	-25
3127.04	-38.5
3127.64	-19
3128.23	-35
3128.83	-59
3129.43	-39.5
3130.02	-13.5
3130.62	-35
3131.22	-42
3131.81	-32
3132.41	-27
3133	-36
3133.6	-26
3134.19	-15.5
3134.79	-50
3135.39	-38
3135.98	-28.5
3136.58	-24.5
3137.17	-32
3137.76	-44
3138.36	-32
3138.95	-28
3139.55	-39.5
3140.14	-22.5
3140.73	-17
3141.33	-51
3141.92	-39.5
3142.51	-29
3143.11	-20
3143.7	-44
3144.29	-42
3144.89	-50
3145.48	-32
3146.07	-36
3146.66	-40.5
3147.26	-17
3147.85	-27
3148.44	-43.5
3149.03	-33
3149.62	-31
3150.21	-47
3150.8	-38.5
3151.39	-24
3151.99	-32
3152.58	-33.5
3153.17	-33.5
3153.76	-14.5
3154.35	-36.5
3154.94	-40
3155.53	-26.5
3156.12	-23
3156.71	-38
3157.29	-34
3157.88	-27.5
3158.47	-28
3159.06	-42
3159.65	-38.5
3160.24	-40
3160.83	-37
3161.42	-43.5
3162	-29.5
3162.59	-29
3163.18	-35
3163.77	-37.5
3164.35	-26
3164.94	-34
3165.53	-40.5
3166.12	-27
3166.7	-30
3167.29	-31
3167.88	-40
3168.46	-25.5
3169.05	-29
3169.64	-34
3170.22	-26
3170.81	-40
3171.39	-34
3171.98	-40.5
3172.56	-36
3173.15	-36
3173.73	-44
3174.32	-41
3174.9	-22
3175.49	-17
3176.07	-39
3176.65	-44
3177.24	-26
3177.82	-33
3178.41	-38.5
3178.99	-32
3179.57	-33
3180.16	-47
3180.74	-40.5
3181.32	-19
3181.91	-32
3182.49	-33
3183.07	-41.5
3183.65	-31
3184.23	-32
3184.82	-41.5
3185.4	-31
3185.98	-31
3186.56	-44
3187.14	-42.5
3187.72	-28
3188.3	-32
3188.89	-45.5
3189.47	-27
3190.05	-34
3190.63	-32
3191.21	-48.5
3191.79	-15
3192.37	-33
3192.95	-41
3193.53	-45.5
3194.11	-24
3194.69	-26
3195.26	-27.5
3195.84	-41
3196.42	-19.5
3197	-44
3197.58	-36
3198.16	-26
3198.74	-46
3199.31	-46
3199.89	-33.5
