100.582	520
101.867	490
103.152	492.5
104.437	500.5
105.721	516.5
107.004	487.5
108.287	448.5
109.571	463
110.853	445
112.136	469
113.418	429.5
114.7	419
115.981	438
117.262	441
118.543	422
119.823	391
121.103	407
122.383	416.5
123.663	375
124.942	366.5
126.221	387.5
127.499	379
128.777	378
130.056	361.5
131.333	364.5
132.61	353
133.887	350
135.163	358
136.439	366.5
137.715	326
138.992	345.5
140.267	334
141.541	305.5
142.816	296
144.09	326
145.364	309
146.637	310
147.911	287.5
149.184	293.5
150.457	293.5
151.729	287
153.001	294.5
154.273	272
155.544	268.5
156.815	264
158.086	257
159.356	255
160.626	228
161.896	241
163.165	247
164.434	237
165.703	246
166.971	226.5
168.24	226.5
169.507	228.5
170.774	214.5
172.042	235
173.309	219
174.575	217
175.841	223
177.107	220
178.373	204.5
179.637	203
180.902	192
182.167	210
183.431	201
184.695	199
185.958	210.5
187.222	197.5
188.485	182
189.747	201
191.009	190.5
192.272	171
193.534	195
194.795	179.5
196.055	191.5
197.316	175
198.577	181
199.837	186
201.096	194.5
202.356	174
203.615	179
204.873	180
206.132	188
207.39	194
208.648	184
209.905	187
211.162	173
212.419	168.5
213.675	187
214.932	191
216.187	182
217.443	188
218.697	182
219.953	166.5
221.207	141
222.462	156
223.715	169
224.969	173
226.222	164
227.475	153.5
228.727	152.5
229.98	150
231.232	167.5
232.483	171.5
233.734	160.5
234.986	163
236.236	151
237.486	161
238.737	151.5
239.986	150
241.235	182.5
242.484	171.5
243.733	196.5
244.981	204.5
246.229	221
247.477	246
248.725	266
249.971	270.5
251.219	256
252.465	239
253.711	202.5
254.957	157
256.203	149
257.448	161
258.693	177.5
259.937	177
261.181	170.5
262.425	142
263.669	168.5
264.912	166.5
266.155	137
267.398	135
268.64	144
269.881	146
271.123	139.5
272.364	140
273.605	133
274.846	125
276.086	130
277.326	126
278.566	147
279.806	127.5
281.045	126.5
282.283	130.5
283.522	128
284.76	117.5
285.998	128.5
287.235	115
288.473	101
289.71	112
290.946	109.5
292.182	127
293.418	100
294.654	115.5
295.888	102.5
297.123	113
298.358	96
299.592	120
300.826	99
302.06	94
303.293	106
304.526	96
305.759	100
306.991	99.5
308.223	104.5
309.455	87
310.687	102
311.917	84
313.148	98.5
314.379	104
315.609	83
316.839	81
318.068	91.5
319.297	98
320.526	84.5
321.754	94
322.982	81.5
324.21	66
325.438	77
326.665	105.5
327.892	77
329.118	67
330.345	83
331.571	82.5
332.797	93
334.022	85
335.247	79.5
336.471	80
337.696	81
338.92	81
340.144	94
341.367	84.5
342.591	78.5
343.813	79
345.036	77
346.257	81
347.48	86.5
348.701	77.5
349.922	79.5
351.143	74
352.363	73
353.583	77
354.803	87.5
356.023	75
357.243	64
358.462	74.5
359.68	86.5
360.899	72
362.117	84
363.334	82
364.551	59
365.769	73
366.986	80.5
368.202	69.5
369.418	53
370.633	67
371.849	72
373.065	74
374.279	60.5
375.494	71
376.708	61.5
377.921	76
379.136	78.5
380.349	62
381.562	65
382.774	56.5
383.987	65
385.198	77
386.41	68.5
387.621	62
388.832	50.5
390.043	60.5
391.253	64
392.463	62
393.674	70.5
394.883	50
396.092	57
397.301	66.5
398.509	60.5
399.717	63
400.925	54
402.133	66
403.34	55
404.547	56
405.753	66.5
406.96	66.5
408.165	65.5
409.371	56
410.576	59
411.781	58
412.986	59
414.191	54.5
415.394	54.5
416.598	50.5
417.802	53
419.005	53.5
420.208	62
421.41	58
422.613	52.5
423.815	44
425.016	40
426.217	44
427.418	48
428.619	45.5
429.818	41
431.019	43.5
432.218	40
433.418	50.5
434.617	48
435.815	43.5
437.014	59.5
438.212	47.5
439.41	50
440.607	44.5
441.805	49
443.001	44
444.198	50
445.394	43
446.59	60.5
447.785	31
448.98	49.5
450.175	51
451.37	43
452.564	47.5
453.758	41
454.952	41
456.145	47
457.339	43.5
458.531	32
459.724	45.5
460.916	45
462.107	37.5
463.299	45
464.49	47
465.681	52
466.871	38.5
468.062	46.5
469.252	31.5
470.441	45.5
471.631	49
472.819	32
474.008	-2
475.196	37.5
476.385	31
477.572	31.5
478.76	28
479.946	37
481.133	36.5
482.32	33
483.506	35
484.692	37
485.877	44.5
487.063	28
488.247	25
489.432	26.5
490.616	53
491.8	32.5
492.984	35.5
494.167	29.5
495.35	27.5
496.533	30.5
497.715	42.5
498.897	48
500.079	39
501.26	31
502.441	29
503.622	38
504.803	33
505.983	39.5
507.163	45
508.342	10
509.522	21.5
510.701	38.5
511.88	40
513.058	28
514.236	25
515.413	28.5
516.591	21.5
517.768	39.5
518.945	37
520.121	31
521.297	27
522.473	25
523.648	31
524.823	32.5
525.998	8
527.173	19
528.348	32
529.522	32
530.694	24.5
531.868	30
533.041	21.5
534.214	14
535.386	15
536.558	33.5
537.731	17
538.902	18
540.073	14
541.244	21.5
542.414	17.5
543.585	13.5
544.754	20
545.924	39
547.094	1.5
548.262	16
549.431	21.5
550.6	19
551.767	0
552.935	26.5
554.103	8.5
555.27	21.5
556.436	18
557.603	12
558.769	21.5
559.935	8.5
561.1	22
562.266	26.5
563.431	22.5
564.595	-6
565.759	11
566.924	22.5
568.087	16
569.25	22.5
570.414	23.5
571.576	20.5
572.739	13
573.901	10
575.062	17
576.224	27
577.385	0.5
578.546	22.5
579.707	24
580.867	20.5
582.028	34
583.187	37
584.347	25
585.505	10
586.664	19
587.822	23
588.98	23
590.138	22
591.296	27.5
592.453	29
593.61	27
594.767	25.5
595.922	26.5
597.079	30.5
598.234	8.5
599.39	34
600.544	32
601.699	24.5
602.854	18
604.008	31
605.161	19
606.315	10
607.468	40
608.621	23
609.774	2
610.926	-9
612.078	16
613.229	13
614.381	19
615.532	13
616.682	17
617.833	18
618.983	1
620.133	12.5
621.282	34.5
622.431	18
623.58	-2
624.729	18.5
625.877	15
627.025	1
628.172	10
629.32	20
630.467	13
631.614	11
632.76	26
633.906	21
635.052	18
636.197	11
637.343	20
638.488	13
639.632	12.5
640.776	-9
641.92	17
643.064	9.5
644.207	7
645.35	5
646.493	22.5
647.635	11.5
648.777	14
649.919	13
651.06	1
652.202	13
653.342	17.5
654.483	3
655.624	1
656.764	-13
657.903	10.5
659.043	9
660.181	8
661.32	-8
662.459	14
663.596	-2
664.735	-1
665.872	7
667.009	5
668.146	10.5
669.282	7
670.419	14.5
671.555	5
672.69	4
673.826	-5
674.96	7
676.096	5.5
677.23	1
678.364	-8.5
679.498	14
680.631	16
681.765	-2
682.897	10.5
684.03	11.5
685.163	4
686.294	-5
687.426	-2
688.557	13
689.689	17
690.819	-4.5
691.949	23.5
693.079	8.5
694.21	13
695.339	20
696.468	12.5
697.597	10.5
698.725	-11
699.854	26
700.982	6.5
702.11	-5
703.237	13
704.364	25.5
705.491	14.5
706.617	18
707.744	28
708.87	24.5
709.995	7
711.12	-4
712.245	26.5
713.37	21.5
714.495	20
715.618	27
716.742	30.5
717.865	32.5
718.989	11.5
720.112	46.5
721.234	32.5
722.356	30
723.478	3.5
724.6	23
725.721	17
726.842	18.5
727.962	15
729.083	38.5
730.203	25
731.323	18
732.442	23
733.562	23.5
734.681	10
735.799	6
736.917	19
738.036	25.5
739.153	10.5
740.27	21
741.387	17.5
742.505	2
743.62	11
744.736	13
745.853	20
746.968	12.5
748.083	11
749.199	15
750.313	16
751.427	12
752.541	21
753.655	23
754.768	20
755.882	10
756.994	31
758.107	15.5
759.219	14.5
760.331	-5.5
761.443	20.5
762.554	14
763.665	9
764.776	11
765.885	21
766.996	15
768.106	14.5
769.215	19
770.324	25.5
771.434	12
772.542	5
773.65	20
774.758	15
775.865	0
776.973	7
778.081	25
779.187	-1.5
780.293	-1
781.399	27
782.506	19.5
783.611	-6
784.716	15
785.821	19.5
786.926	20
788.03	7.5
789.134	11
790.238	9.5
791.341	15
792.444	-2
793.547	9
794.65	30.5
795.752	-6
796.854	18
797.956	18
799.057	4
800.158	6
801.259	31
802.359	17.5
803.459	7
804.559	14.5
805.659	29
806.758	12.5
807.857	15.5
808.955	22
810.053	39
811.152	16.5
812.25	17
813.347	37
814.444	19
815.541	10
816.638	24
817.733	44.5
818.83	29
819.925	29
821.02	26.5
822.115	41
823.21	25
824.305	28
825.398	52.5
826.492	47
827.586	44
828.679	41
829.772	64.5
830.865	54
831.957	43
833.049	59
834.141	55.5
835.232	58
836.323	69
837.414	68
838.505	77
839.595	55
840.685	57
841.774	85.5
842.864	64
843.952	62
845.041	55
846.129	74.5
847.218	50
848.306	65.5
849.393	70.5
850.48	61
851.567	41
852.654	64
853.74	65
854.826	63
855.912	36
856.997	52
858.082	53
859.167	42
860.252	55.5
861.336	67
862.42	64
863.504	54
864.587	67.5
865.67	74.5
866.753	54
867.835	54
868.917	53
869.999	64
871.081	61
872.162	61
873.243	58.5
874.323	64
875.404	52.5
876.484	73.5
877.564	55.5
878.643	62.5
879.722	58
880.802	43
881.88	69
882.958	58
884.036	71
885.113	66
886.191	56
887.268	41
888.344	58.5
889.421	69
890.498	55
891.573	23
892.649	52.5
893.724	53
894.799	30.5
895.874	35
896.948	53.5
898.022	38
899.096	16
900.17	38
901.243	60.5
902.315	48.5
903.389	35
904.461	48.5
905.533	44
906.605	34
907.676	42
908.747	47.5
909.818	55
910.888	44.5
911.958	54.5
913.028	64
914.098	59.5
915.167	36.5
916.237	57
917.306	49
918.374	45.5
919.442	48.5
920.51	45
921.577	49
922.644	24.5
923.711	45.5
924.778	40
925.845	32.5
926.911	36
927.977	42
929.042	35.5
930.107	44
931.173	47
932.237	40.5
933.301	46.5
934.365	46
935.429	44
936.492	32.5
937.556	38
938.619	49
939.681	50
940.743	34.5
941.805	32
942.867	33.5
943.928	48
944.989	29
946.05	39
947.11	43
948.17	40.5
949.23	40
950.29	38
951.349	31
952.409	42.5
953.467	38
954.526	44
955.584	35
956.641	38.5
957.699	28
958.756	41.5
959.813	54
960.869	33
961.926	34
962.982	44.5
964.038	35
965.094	27
966.149	51.5
967.204	41
968.258	51
969.312	62.5
970.366	54.5
971.42	51.5
972.473	56
973.527	51
974.58	30
975.631	45
976.684	35
977.736	12
978.787	32.5
979.839	31.5
980.89	26
981.94	20.5
982.991	18.5
984.041	28.5
985.091	34
986.141	20.5
987.19	8.5
988.239	19
989.288	32
990.336	21.5
991.384	16
992.432	16
993.48	26.5
994.527	29.5
995.574	18
996.62	15.5
997.666	30.5
998.713	16
999.759	22.5
1000.8	25
1001.85	13.5
1002.89	25
1003.94	20
1004.98	23
1006.03	30
1007.07	23.5
1008.11	26
1009.16	26
1010.2	24.5
1011.24	23
1012.29	29.5
1013.33	19
1014.37	21
1015.41	19
1016.45	27
1017.49	26
1018.53	19
1019.57	33
1020.61	24.5
1021.65	17
1022.69	22
1023.73	21
1024.77	15
1025.81	7
1026.85	32.5
1027.88	24.5
1028.92	33
1029.96	33.5
1031	31.5
1032.03	13
1033.07	23.5
1034.1	14
1035.14	23.5
1036.18	16
1037.21	31
1038.25	30.5
1039.28	31.5
1040.32	40.5
1041.35	28.5
1042.38	31
1043.42	30
1044.45	32.5
1045.48	25.5
1046.52	45.5
1047.55	20
1048.58	26
1049.61	26
1050.64	20.5
1051.67	36
1052.71	31
1053.74	32
1054.77	34
1055.8	33
1056.83	36
1057.85	49
1058.88	30
1059.91	51
1060.94	55
1061.97	43
1063	45
1064.03	45
1065.05	51.5
1066.08	41
1067.11	46
1068.13	59
1069.16	54
1070.19	44.5
1071.21	60
1072.24	56.5
1073.26	59.5
1074.29	49
1075.31	60
1076.34	52.5
1077.36	43.5
1078.38	60
1079.41	66
1080.43	56.5
1081.45	50
1082.47	52
1083.5	48
1084.52	40
1085.54	63
1086.56	64
1087.58	59.5
1088.6	44
1089.62	36
1090.64	54
1091.66	34
1092.68	30
1093.7	40.5
1094.72	27.5
1095.74	35
1096.76	36
1097.78	35
1098.79	31
1099.81	14
1100.83	34
1101.85	35
1102.86	28
1103.88	21
1104.9	26.5
1105.91	26
1106.93	39
1107.94	33.5
1108.96	22
1109.97	37
1110.99	23
1112	22
1113.01	27.5
1114.03	11.5
1115.04	13
1116.05	12.5
1117.07	28
1118.08	28.5
1119.09	1
1120.1	27
1121.11	22
1122.13	3.5
1123.14	12
1124.15	24
1125.16	18.5
1126.17	2
1127.18	-4.5
1128.19	24
1129.2	2.5
1130.2	9
1131.21	6.5
1132.22	15
1133.23	-2.5
1134.24	-21
1135.25	0
1136.25	3
1137.26	4
1138.27	-2.5
1139.27	2
1140.28	-2
1141.28	13
1142.29	8
1143.29	6.5
1144.3	3
1145.3	5
1146.31	5
1147.31	3.5
1148.32	-5
1149.32	-6.40952
1150.32	1.14822
1151.33	5.76815
1152.33	-11.1162
1153.33	10.9228
1154.33	-7.9706
1155.33	-20.412
1156.34	4.00068
1157.34	22.5657
1158.34	9.11077
1159.34	-5.91618
1160.34	2.82791
1161.34	10.1812
1162.34	-1.6318
1163.34	1.13759
1164.34	-3.85174
1165.34	10.3275
1166.33	7.68107
1167.33	-3.37909
1168.33	2.16664
1169.33	1.27581
1170.33	8.98117
1171.32	-0.690155
1172.32	1.53196
1173.32	-5.72667
1174.31	7.51642
1175.31	11.8957
1176.31	-1.25426
1177.3	0.474048
1178.3	-1.16642
1179.29	12.8297
1180.29	0.651191
1181.28	5.14783
1182.27	-1.3935
1183.27	6.30374
1184.26	5.86089
1185.25	-1.18758
1186.25	8.02874
1187.24	2.84104
1188.23	-2.86933
1189.22	1.07133
1190.22	8.08838
1191.21	5.14194
1192.2	-1.55944
1193.19	8.53624
1194.18	1.62298
1195.17	3.73811
1196.16	5.67793
1197.15	12.7059
1198.14	6.29393
1199.13	0.717823
1200.12	16.2085
1201.11	16.476
1202.09	8.83906
1203.08	8.35105
1204.07	15.4303
1205.06	3.47915
1206.04	7.81947
1207.03	-0.348853
1208.02	20.1315
1209	2.77981
1209.99	-2.88914
1210.98	16.9714
1211.96	19.2238
1212.95	4.88309
1213.93	4.28116
1214.92	22.5817
1215.9	17.7647
1216.89	6.09707
1217.87	13.1247
1218.85	18.2795
1219.84	11.2381
1220.82	7.85234
1221.8	17.9535
1222.78	23.0935
1223.77	23.2898
1224.75	19.3714
1225.73	18.4386
1226.71	23.3836
1227.69	18.1259
1228.67	14.4136
1229.65	25.2147
1230.63	19.496
1231.61	13.4518
1232.59	24.7752
1233.57	35.4887
1234.55	31.3853
1235.53	22.1932
1236.51	23.8073
1237.49	28.839
1238.46	30.9091
1239.44	17.5302
1240.42	26.0635
1241.4	40.0995
1242.37	37.2624
1243.35	33.0814
1244.32	45.397
1245.3	49.3999
1246.28	47.3774
1247.25	49.4359
1248.23	53.7928
1249.2	55.8791
1250.18	48.928
1251.15	58.9263
1252.12	74.6611
1252.72	66.5
1253.73	64.5
1254.74	62.5
1255.75	84
1256.75	89
1257.76	81.5
1258.77	91
1259.78	91.5
1260.79	88
1261.79	90
1262.8	93
1263.81	93
1264.81	77
1265.82	71
1266.82	91
1267.83	88.5
1268.83	78.5
1269.84	75
1270.84	87
1271.85	78.5
1272.85	59
1273.86	74
1274.86	49
1275.86	65
1276.87	53
1277.87	65.5
1278.87	51
1279.88	67
1280.88	64
1281.88	60
1282.88	28.5
1283.88	49
1284.88	73
1285.88	64
1286.89	50
1287.89	61.5
1288.89	65.5
1289.89	71.5
1290.89	60.5
1291.89	70
1292.88	70
1293.88	78
1294.88	68
1295.88	82
1296.88	98
1297.88	78
1298.88	79.5
1299.87	109
1300.87	91
1301.87	88
1302.86	93.5
1303.86	85
1304.86	82.5
1305.85	71
1306.85	77.5
1307.85	73.5
1308.84	56
1309.84	57
1310.83	66
1311.83	55.5
1312.82	22
1313.81	46
1314.81	50.5
1315.8	45
1316.8	45
1317.79	50.5
1318.78	43.5
1319.77	38
1320.77	38.5
1321.76	48
1322.75	31
1323.74	39
1324.73	35.5
1325.72	44.5
1326.72	25.5
1327.71	23
1328.7	29
1329.69	36
1330.68	13
1331.67	21.5
1332.66	32
1333.65	30
1334.63	17
1335.62	36
1336.61	15.5
1337.6	19
1338.59	31
1339.58	33
1340.56	14
1341.55	9
1342.54	29
1343.53	24
1344.51	19.5
1345.5	17
1346.48	24
1347.47	-2
1348.45	13.5
1349.44	14
1350.43	18.5
1351.41	25.5
1352.4	15.5
1353.38	24.5
1354.36	24.5
1355.35	12
1356.33	30.5
1357.31	16
1358.3	4
1359.28	19
1360.26	19
1361.25	28.5
1362.23	10
1363.21	15
1364.19	11.5
1365.17	27
1366.15	4
1367.14	22
1368.12	27
1369.1	14.5
1370.08	8.5
1371.06	27
1372.04	17
1373.02	-2.5
1373.99	5
1374.97	11
1375.95	18.5
1376.93	6
1377.91	-4
1378.89	22
1379.86	5
1380.84	-1
1381.82	6
1382.8	19.5
1383.77	2
1384.75	6
1385.73	11.5
1386.7	6
1387.68	8
1388.65	4.5
1389.63	18
1390.6	6
1391.58	11
1392.55	8
1393.53	5
1394.5	12
1395.48	2
1396.45	10.5
1397.42	22
1398.4	-16
1399.37	16
1400.34	18.5
1401.31	9.5
1402.29	5
1403.26	4
1404.23	9.5
1405.2	-4.5
1406.17	0
1407.14	27
1408.11	-5.5
1409.08	10.5
1410.05	1
1411.02	22
1411.99	11
1412.96	1
1413.93	1.5
1414.9	30
1415.87	9
1416.84	21
1417.81	23
1418.78	8
1419.74	9
1420.71	18.5
1421.68	51.5
1422.65	3
1423.61	26
1424.58	28.5
1425.55	37
1426.51	35.5
1427.48	15
1428.44	51
1429.41	66
1430.37	66
1431.34	73.5
1432.3	81
1433.27	75.5
1434.23	79
1435.2	107
1436.16	105.5
1437.12	100
1438.09	108
1439.05	106
1440.01	110.5
1440.97	91
1441.94	116.5
1442.9	117.5
1443.86	69
1444.82	91
1445.78	77
1446.74	94
1447.7	70.5
1448.67	88.5
1449.63	73
1450.59	65
1451.55	62
1452.5	75
1453.46	79
1454.42	57
1455.38	60.5
1456.34	70
1457.3	65
1458.26	37
1459.21	52.5
1460.17	66.5
1461.13	38
1462.09	42.5
1463.04	51
1464	46
1464.96	9
1465.91	30
1466.87	20.5
1467.82	27
1468.78	5.5
1469.73	16
1470.69	9.5
1471.64	9
1472.6	15
1473.55	8.5
1474.51	10
1475.46	-15
1476.41	-2.5
1477.37	11
1478.32	1
1479.27	-21
1480.23	4.5
1481.18	22.5
1482.13	-9
1483.08	-9
1484.03	15
1484.98	-3
1485.94	-7.5
1486.89	-6
1487.84	5
1488.79	-4.5
1489.74	-12
1490.69	-13
1491.64	0
1492.59	-7
1493.54	-20
1494.48	2
1495.43	4
1496.38	-11
1497.33	-19.5
1498.28	-2.5
1499.23	-6.5
1500.17	-16
1501.12	0.5
1502.07	1.5
1503.01	-14.5
1503.96	-14.5
1504.91	1.5
1505.85	-3.5
1506.8	-22
1507.74	-6.5
1508.69	-5
1509.64	-15
1510.58	-18
1511.52	0.5
1512.47	-3.5
1513.41	-9
1514.36	-18
1515.3	3
1516.24	-11
1517.19	-18
1518.13	0
1519.07	-1
1520.01	-21
1520.96	-18
1521.9	3
1522.84	-9
1523.78	-20.5
1524.72	-9
1525.66	-8
1526.6	-12
1527.55	-49
1528.49	-8
1529.43	-8.5
1530.37	-16
1531.3	-20
1532.24	-3
1533.18	-10
1534.12	-17
1535.06	-18.5
1536	-7.5
1536.94	-14
1537.88	-25.5
1538.81	-22
1539.75	-11
1540.69	-16
1541.62	-11
1542.56	-26
1543.5	-4
1544.43	-22.5
1545.37	-16.5
1546.3	-2
1547.24	-11
1548.18	-27
1549.11	-14.5
1550.05	-16
1550.98	-23
1551.91	-23
1552.85	0
1553.78	-17.5
1554.72	-12.5
1555.65	-12
1556.58	-2.5
1557.51	-22.5
1558.45	-36
1559.38	-13.5
1560.31	-10.5
1561.24	-20
1562.17	-22
1563.11	-6
1564.04	-20
1564.97	-24.5
1565.9	-16
1566.83	-14.5
1567.76	-24
1568.69	-18.5
1569.62	-9
1570.55	-13
1571.48	-19.5
1572.41	-13
1573.34	-11
1574.26	-7
1575.19	-21.5
1576.12	-12.5
1577.05	-3.5
1577.98	-25
1578.9	-26
1579.83	-12
1580.76	-14.5
1581.68	-19
1582.61	-22
1583.54	-9
1584.46	-16
1585.39	-30.5
1586.31	-25
1587.24	-2
1588.16	-21
1589.09	-25.5
1590.01	-12
1590.94	-16.5
1591.86	-18
1592.78	-27
1593.71	-12.5
1594.63	-28.5
1595.55	-22
1596.48	-16
1597.4	-4
1598.32	-25
1599.24	-21
1600.17	-5
1601.09	-10
1602.01	-22.5
1602.93	-23
1603.85	-11
1604.77	-20.5
1605.69	-23
1606.61	-13
1607.53	-9.5
1608.45	-40
1609.37	-29.5
1610.29	-7.5
1611.21	-26.5
1612.13	-32
1613.05	-16
1613.96	-11
1614.88	-21
1615.8	-16.5
1616.72	-13
1617.63	-12
1618.55	-19.5
1619.47	-29
1620.38	-1.5
1621.3	-29
1622.22	-29
1623.13	-21
1624.05	1
1624.96	-23
1625.88	-20.5
1626.79	-9
1627.71	-8
1628.62	-22
1629.54	-36
1630.45	6
1631.37	-9
1632.28	-22
1633.19	-18.5
1634.1	-3.5
1635.02	-8
1635.93	-14.5
1636.84	-1.5
1637.75	1
1638.67	-3
1639.58	-14
1640.49	9.5
1641.4	5
1642.31	-5
1643.22	12.5
1644.13	18.5
1645.04	1.5
1645.95	12
1646.86	40
1647.77	38
1648.68	22
1649.59	30
1650.5	49
1651.41	64
1652.31	68
1653.22	67
1654.13	75
1655.04	80.5
1655.95	63.5
1656.85	90
1657.76	86.5
1658.67	66
1659.57	64
1660.48	59
1661.38	50
1662.29	26
1663.2	30
1664.1	0
1665.01	6
1665.91	6
1666.81	9.5
1667.72	6.5
1668.62	-18
1669.53	-13
1670.43	0
1671.33	-18.5
1672.24	-15
1673.14	-6.5
1674.04	-13
1674.94	-22
1675.85	-19.5
1676.75	-14.5
1677.65	-3.5
1678.55	-45
1679.45	-17
1680.35	-11.5
1681.25	-39.5
1682.15	-22
1683.05	-10.5
1683.95	-18
1684.85	-35
1685.75	-25
1686.65	-10
1687.55	-19.5
1688.45	-24
1689.35	-32
1690.25	-3
1691.15	-26
1692.04	-48
1692.94	-16
1693.84	-20
1694.74	-28.5
1695.63	-21
1696.53	-21.5
1697.43	-22
1698.32	-33
1699.22	-36
1700.11	-20
1701.01	-32.5
1701.9	-23
1702.8	-7
1703.69	-22.5
1704.59	-31
1705.48	-26
1706.38	-8.5
1707.27	-21.5
1708.16	-21
1709.06	-23
1709.95	-13
1710.84	-25.5
1711.74	-45
1712.63	-6.5
1713.52	-11.5
1714.41	-29
1715.3	-25.5
1716.2	-11
1717.09	-29
1717.98	-29
1718.87	-33
1719.76	-11
1720.65	-28
1721.54	-31.5
1722.43	-19
1723.32	-23
1724.21	-23
1725.1	-12.5
1725.99	-20.5
1726.88	-13.5
1727.76	-18
1728.65	-18
1729.54	-8
1730.43	-32.5
1731.31	-11
1732.2	-16.5
1733.09	-15
1733.98	-29
1734.86	-9
1735.75	-9
1736.63	-23
1737.52	-22
1738.41	-15
1739.29	-15
1740.18	-22
1741.06	-6
1741.95	-14
1742.83	-12
1743.72	-8
1744.6	-1
1745.48	4.5
1746.37	-5
1747.25	-20
1748.13	-6
1749.02	-12
1749.9	-17.5
1750.78	-16
1751.66	-15
1752.54	-14
1753.43	-11.75
1754.31	-9.5
1755.19	1.5
1756.07	-15
1756.95	-17
1757.83	-22
1758.71	-23
1759.59	-26.5
1760.47	-28
1761.35	-6
1762.23	-31
1763.11	-23
1763.99	-21
1764.87	-14
1765.74	-33
1766.62	-25
1767.5	-16
1768.38	-28
1769.25	-30.5
1770.13	-22.5
1771.01	-16
1771.89	-19.5
1772.76	-38
1773.64	-30.5
1774.51	-16
1775.39	-22
1776.27	-30
1777.14	-29
1778.02	-23
1778.89	-38
1779.76	-39
1780.64	-20
1781.51	-39
1782.39	-34.5
1783.26	-11
1784.13	-18
1785.01	-27
1785.88	-19
1786.75	-17
1787.63	-23.5
1788.5	-37.5
1789.37	-32
1790.24	-17
1791.11	-23
1791.98	-20
1792.86	-25.5
1793.73	-13
1794.6	-31.5
1795.47	-24
1796.34	-21
1797.21	-37
1798.08	-35.5
1798.95	-27
1799.82	-22
1800.68	-20
1801.55	-40
1802.42	-39
1803.29	-27
1804.16	-20
1805.03	-32
1805.89	-27.5
1806.76	-23.5
1807.63	-40
1808.49	-20
1809.36	-26
1810.23	-33.5
1811.09	-39
1811.96	-34.5
1812.83	-26
1813.69	-26.5
1814.56	-16
1815.42	-24
1816.29	-13
1817.15	-35.5
1818.02	-35
1818.88	-16
1819.74	-29
1820.61	-24.5
1821.47	-15
1822.33	-27
1823.2	-25
1824.06	-22
1824.92	-15
1825.78	-31
1826.65	-28
1827.51	-31
1828.37	-33
1829.23	-29
1830.09	-26
1830.95	-23.5
1831.81	-29.5
1832.67	-26.5
1833.53	-27.5
1834.39	-29
1835.25	-38
1836.11	-41
1836.97	-26
1837.83	-2.5
1838.69	-25
1839.55	-33
1840.41	-23.5
1841.26	-35.5
1842.12	-16
1842.98	-26
1843.84	-20
1844.69	-27
1845.55	-30.5
1846.41	-6
1847.26	-27
1848.12	-40
1848.98	-32
1849.83	-23.5
1850.69	-25.5
1851.54	-33.5
1852.4	-10
1853.25	-21
1854.11	-24.5
1854.96	-28
1855.82	-20
1856.67	-24.5
1857.52	-35
1858.38	-23
1859.23	-28
1860.08	-26.5
1860.93	-31
1861.79	-22
1862.64	-29.5
1863.49	-32
1864.34	-36
1865.19	-5.5
1866.05	-25
1866.9	-34.5
1867.75	-21.5
1868.6	-25.5
1869.45	-34
1870.3	-17
1871.15	-8
1872	-22
1872.85	-25
1873.7	-32
1874.55	-29
1875.4	-17.5
1876.24	-29
1877.09	-34
1877.94	-11.5
1878.79	-37
1879.64	-22
1880.48	-15
1881.33	-32
1882.18	-30
1883.02	-31
1883.87	-15
1884.72	-28.5
1885.56	-39.5
1886.41	-14
1887.25	-26
1888.1	-27.5
1888.94	-28
1889.79	-16.5
1890.63	-28.5
1891.48	-42.5
1892.32	-32
1893.17	-15.5
1894.01	-21.5
1894.85	-31.5
1895.7	-28.5
1896.54	-19
1897.38	-31
1898.23	-30
1899.07	-10
1899.91	-32.5
1900.75	-30
1901.59	-28.5
1902.44	-25.5
1903.28	-35
1904.12	-30.5
1904.96	-35
1905.8	-28.5
1906.64	-34.5
1907.48	-28
1908.32	-13.5
1909.16	-28
1910	-37.5
1910.84	-28.5
1911.68	-14
1912.51	-17
1913.35	-35.5
1914.19	-13
1915.03	-28
1915.87	-32
1916.7	-22.5
1917.54	-10
1918.38	-49
1919.21	-35
1920.05	-23
1920.89	-20.5
1921.72	-12.5
1922.56	-39
1923.4	-26
1924.23	-33
1925.07	-23.5
1925.9	-27
1926.74	-5
1927.57	-25
1928.41	-37
1929.24	-21
1930.07	-11.5
1930.91	-28.5
1931.74	-38
1932.57	-23.5
1933.41	-26.5
1934.24	-23.5
1935.07	-18.5
1935.9	-19
1936.74	-41
1937.57	-41
1938.4	-20
1939.23	-15
1940.06	-25.5
1940.89	-28.5
1941.72	-8.5
1942.55	-30.5
1943.38	-51
1944.21	-22.5
1945.04	-20.5
1945.87	-45
1946.7	-32.5
1947.53	-21
1948.36	-19.5
1949.19	-21.5
1950.02	-37
1950.84	-18.5
1951.67	-34
1952.5	-43
1953.33	-14.5
1954.15	-26.5
1954.98	-32
1955.81	-26
1956.64	-33
1957.46	-25
1958.29	-44
1959.11	-32
1959.94	-34.5
1960.76	-38.5
1961.59	-36
1962.41	-24
1963.24	-17.5
1964.06	-51
1964.89	-39.5
1965.71	-19
1966.53	-26.5
1967.36	-50
1968.18	-50
1969	-25.5
1969.83	-38
1970.65	-31.5
1971.47	-19
1972.3	-18
1973.12	-42
1973.94	-29.5
1974.76	-23.5
1975.58	-19
1976.4	-40
1977.22	-34
1978.04	-17
1978.86	-33
1979.68	-35.5
1980.5	-9
1981.32	-21.5
1982.14	-36
1982.96	-23
1983.78	-20.5
1984.6	-27
1985.42	-24
1986.24	-31.5
1987.06	-15.5
1987.87	-38.5
1988.69	-30.5
1989.51	-24
1990.32	-29
1991.14	-52
1991.96	-32.5
1992.78	-26.5
1993.59	-21
1994.41	-36
1995.22	-27
1996.04	-14
1996.85	-29
1997.67	-29.0238
1998.48	-18.2644
1999.3	-52.007
2000.11	-56.3823
2000.93	-32.4682
2001.74	-17.3143
2002.56	-25.8404
2003.37	-43.1585
2004.18	-23.4687
2004.99	-17.6292
2005.81	-31.9613
2006.62	-19.8863
2007.43	-16.2495
2008.25	-17.0181
2009.06	-26.7395
2009.87	-27.219
2010.68	-20.9813
2011.49	-18.5011
2012.3	-31.4284
2013.11	-23.5554
2013.92	-18.1237
2014.73	-32.2778
2015.54	-12.8904
2016.35	-26.9792
2017.16	-18.9198
2017.97	-28.9192
2018.78	-32.055
2019.59	-23.2926
2020.4	-28.039
2021.21	-33.7481
2022.02	-26.3768
2022.83	-24.899
2023.63	-34.8676
2024.44	-30.2979
2025.25	-17.1529
2026.06	-26.0857
2026.86	-36.3141
2027.67	-21.6399
2028.48	-22.3657
2029.28	-17.7887
2030.09	-27.1929
2030.89	-25.7634
2031.7	-27.3836
2032.5	-27.7294
2033.31	-25.6251
2034.11	-23.2884
2034.92	-25.0733
2035.72	-33.173
2036.53	-19.3328
2037.33	-22.1975
2038.14	-26.4207
2038.94	-29.8024
2039.74	-28.8401
2040.55	-24.1404
2041.35	-35.0764
2042.15	-28.5724
2042.95	-12.496
2043.76	-21.3915
2044.56	-31.2865
2045.36	-26.0268
2046.16	-22.058
2046.96	-26.3747
2047.76	-26.1636
2048.56	-21.4786
2049.37	-21.8046
2050.17	-31.8621
2050.97	-25.0886
2051.77	-18.8373
2052.57	-20.4245
2053.36	-19.9846
2054.16	-16.854
2054.96	-23.8381
2055.76	-26.1595
2056.56	-28.7023
2057.36	-16.441
2058.16	-19.6683
2058.96	-16.8338
2059.75	-17.5149
2060.55	-16.093
2061.35	-12.2503
2062.14	-22.3744
2062.94	-27.4752
2063.74	-19.6142
2064.53	-19.2106
2065.33	-23.907
2066.13	-19.9224
2066.92	-15.331
2067.72	-23.3899
2068.51	-26.2743
2069.31	-16.5015
2070.1	-16.45
2070.9	-22.4528
2071.69	-19.1311
2072.49	-13.495
2073.28	-15.3008
2074.07	-13.1449
2074.87	-15.3596
2075.66	-14.6622
2076.45	-14.8551
2077.25	-23.2877
2078.04	-13.5797
2078.83	-15.555
2079.62	-10.5586
2080.41	-12.5951
2081.21	-12.6716
2081.38	-12.5
2082.2	-15.5
2083.03	-21.5
2083.86	-14.5
2084.68	-7
2085.51	-14.5
2086.34	-13
2087.16	-22
2087.99	-15
2088.81	-14.5
2089.64	-11
2090.46	-0.5
2091.29	-15
2092.11	-22.5
2092.94	-15
2093.76	-12
2094.58	-15.5
2095.41	-33
2096.23	-11
2097.06	-16
2097.88	-5.5
2098.7	-20
2099.53	-5
2100.35	-19.5
2101.17	-25.5
2101.99	-18
2102.81	-18.5
2103.64	-10
2104.46	-13
2105.28	-16.5
2106.1	-4
2106.92	-10
2107.74	-17.5
2108.56	-12
2109.38	-9
2110.2	-21.5
2111.03	-9.5
2111.84	-9
2112.66	-16
2113.48	-23
2114.3	-28
2115.12	-15
2115.94	-16.5
2116.76	-12.5
2117.58	-19
2118.4	-18
2119.22	-38
2120.03	-11.5
2120.85	-16
2121.67	-29
2122.49	-26
2123.3	-15
2124.12	-5.5
2124.94	-12
2125.76	-23
2126.57	-4
2127.39	-22
2128.2	-23.5
2129.02	-20
2129.83	-11.5
2130.65	-14.5
2131.47	-25.5
2132.28	-19
2133.1	-29
2133.91	-13
2134.73	-11.5
2135.54	-14
2136.35	-19
2137.17	-31
2137.98	-18.5
2138.79	-7
2139.61	-17.5
2140.42	-24
2141.23	-6.5
2142.05	-12.5
2142.86	-14.5
2143.67	-23
2144.48	1
2145.3	-15.5
2146.11	-13
2146.92	-19.5
2147.73	-9.5
2148.54	-17
2149.35	-24
2150.16	-15.5
2150.97	-9.5
2151.79	-23
2152.6	-18
2153.41	-5
2154.22	-17.5
2155.02	-27
2155.83	-16
2156.64	-1.5
2157.45	-20
2158.26	-32
2159.07	-30
2159.88	-14
2160.69	-30
2161.5	-24
2162.3	-23.5
2163.11	-23
2163.92	-7.5
2164.73	-22.5
2165.53	-17
2166.34	-25
2167.15	-25
2167.95	-23
2168.76	-21
2169.57	-17
2170.37	-40
2171.18	-10.5
2171.98	-30
2172.79	-23.5
2173.59	-21
2174.4	-12
2175.2	-26
2176.01	-14.5
2176.81	-22
2177.62	-23
2178.42	-23
2179.22	-29.5
2180.03	-13
2180.83	-13.5
2181.63	-32
2182.44	-28
2183.24	-23
2184.04	-23.5
2184.85	-24
2185.65	-16
2186.45	-30
2187.25	-30
2188.05	-31
2188.86	-22.5
2189.66	-31.5
2190.46	-53
2191.26	-24
2192.06	-14.5
2192.86	-33.5
2193.66	-27
2194.46	-25
2195.26	-25.5
2196.06	-23
2196.86	-34
2197.66	-22
2198.46	-32
2199.26	-36
2200.06	-19.5
2200.85	-18.5
2201.65	-34
2202.45	-32
2203.25	-22
2204.05	-41
2204.84	-42
2205.64	-25.5
2206.44	-10.5
2207.24	-39
2208.03	-33
2208.83	-14
2209.63	-25
2210.42	-21.5
2211.22	-24.5
2212.01	-24.5
2212.81	-26
2213.61	-27
2214.4	-26
2215.2	-24.5
2215.99	-35
2216.79	-43
2217.58	-23
2218.37	-18.5
2219.17	-36
2219.96	-27
2220.76	-32.5
2221.55	-61
2222.34	-51
2223.14	-20
2223.93	-30
2224.72	-35.5
2225.51	-45
2226.31	-20.5
2227.1	-30
2227.89	-24
2228.68	-36.5
2229.47	-23
2230.27	-36
2231.06	-29
2231.85	-23
2232.64	-23.5
2233.43	-30
2234.22	-34
2235.01	-31
2235.8	-21.5
2236.59	-34
2237.38	-28
2238.17	-27
2238.96	-36
2239.75	-33
2240.54	-30.5
2241.33	-10
2242.11	-40
2242.9	-22
2243.69	-21.5
2244.48	-31.5
2245.27	-25
2246.05	-36
2246.84	-25.5
2247.63	-42
2248.41	-33
2249.2	-27
2249.99	-21
2250.77	-40
2251.56	-37.5
2252.35	-29
2253.13	-33.5
2253.92	-37
2254.7	-37.5
2255.49	-15
2256.27	-31
2257.06	-38.5
2257.84	-31.5
2258.63	-30
2259.41	-31
2260.2	-35
2260.98	-20
2261.76	-36
2262.55	-50
2263.33	-32.5
2264.11	-36
2264.9	-29.5
2265.68	-32
2266.46	-27.5
2267.24	-24
2268.03	-31.5
2268.81	-23.5
2269.59	-18
2270.37	-37.5
2271.15	-29
2271.93	-33.5
2272.71	-32
2273.5	-35
2274.28	-24
2275.06	-27.5
2275.84	-27.5
2276.62	-30
2277.4	-38.5
2278.18	-23.5
2278.96	-34
2279.73	-22
2280.51	-30
2281.29	-40.5
2282.07	-29.5
2282.85	-43
2283.63	-48.5
2284.41	-36
2285.18	-49
2285.96	-27
2286.74	-30
2287.52	-26.5
2288.29	-30
2289.07	-31.5
2289.85	-36
2290.62	-47
2291.4	-28
2292.18	-31.5
2292.95	-18
2293.73	-32
2294.5	-33
2295.28	-24.5
2296.05	-33
2296.83	-36
2297.6	-45
2298.38	-23.5
2299.15	-51
2299.93	-21
2300.7	-29
2301.48	-46
2302.25	-43
2303.02	-36.5
2303.8	-35
2304.57	-31
2305.34	-45
2306.11	-35
2306.89	-33
2307.66	-30.5
2308.43	-33
2309.2	-27
2309.97	-28.5
2310.75	-27.5
2311.52	-29
2312.29	-31.5
2313.06	-48
2313.83	-51
2314.6	-30.5
2315.37	-25
2316.14	-54
2316.91	-32
2317.68	-40
2318.45	-31.5
2319.22	-40
2319.99	-37.5
2320.76	-29
2321.53	-20.5
2322.3	-34
2323.06	-35
2323.83	-36
2324.6	-22.5
2325.37	-25.5
2326.14	-27
2326.9	-42
2327.67	-56
2328.44	-23
2329.21	-22
2329.97	-44
2330.74	-31
2331.5	-42
2332.27	-37.5
2333.04	-44
2333.8	-31
2334.57	-28.5
2335.33	-30.5
2336.1	-46
2336.86	-41
2337.63	-42
2338.39	-48
2339.16	-33.5
2339.92	-35
2340.69	-42
2341.45	-57
2342.21	-26.5
2342.98	-27
2343.74	-39
2344.5	-42
2345.27	-31
2346.03	-33.5
2346.79	-41
2347.55	-29
2348.31	-40.5
2349.08	-42.5
2349.84	-50
2350.6	-25.5
2351.36	-28.5
2352.12	-32
2352.88	-26.5
2353.64	-30.5
2354.41	-32.5
2355.17	-35
2355.93	-28.5
2356.69	-30.5
2357.45	-50
2358.21	-40
2358.96	-32.5
2359.72	-33
2360.48	-33.5
2361.24	-41
2362	-25
2362.76	-38.5
2363.52	-30
2364.28	-38
2365.03	-27.5
2365.79	-41
2366.55	-42
2367.31	-41.5
2368.06	-24
2368.82	-37
2369.58	-23
2370.33	-28
2371.09	-28
2371.85	-31
2372.6	-30.5
2373.36	-46.5
2374.11	-40
2374.87	-44
2375.62	-31.5
2376.38	-21.5
2377.13	-20
2377.89	-46.5
2378.64	-40.5
2379.4	-39
2380.15	-46
2380.9	-33
2381.66	-34
2382.41	-46
2383.16	-38
2383.92	-37
2384.67	-36
2385.42	-38
2386.18	-31
2386.93	-36.5
2387.68	-25.5
2388.43	-35
2389.18	-22
2389.94	-37.5
2390.69	-39.5
2391.44	-42
2392.19	-38.5
2392.94	-34
2393.69	-28.5
2394.44	-33
2395.19	-40
2395.94	-26
2396.69	-27
2397.44	-20.5
2398.19	-41
2398.94	-37
2399.69	-45
2400.44	-29
2401.19	-36.5
2401.93	-29
2402.68	-31.5
2403.43	-30.5
2404.18	-31
2404.93	-25
2405.67	-32.5
2406.42	-33
2407.17	-35
2407.92	-27.5
2408.66	-25
2409.41	-33.5
2410.16	-28
2410.9	-35.5
2411.65	-35
2412.39	-29.5
2413.14	-37
2413.89	-35.5
2414.63	-38.5
2415.38	-41
2416.12	-32
2416.86	-36
2417.61	-25
2418.35	-33
2419.1	-26.5
2419.84	-36
2420.59	-36
2421.33	-37
2422.07	-35
2422.82	-41.5
2423.56	-39
2424.3	-38
2425.04	-29
2425.79	-38
2426.53	-37
2427.27	-28
2428.01	-39.5
2428.75	-37
2429.5	-24
2430.24	-36.5
2430.98	-34
2431.72	-26.5
2432.46	-33.5
2433.2	-34
2433.94	-42
2434.68	-28
2435.42	-23
2436.16	-31
2436.9	-39
2437.64	-28
2438.38	-32
2439.12	-30.5
2439.86	-44
2440.59	-36
2441.33	-30.5
2442.07	-20
2442.81	-44
2443.55	-42.5
2444.28	-39.5
2445.02	-41
2445.76	-31
2446.5	-33
2447.23	-34.5
2447.97	-48
2448.71	-36
2449.44	-31.5
2450.18	-44
2450.91	-24
2451.65	-38.5
2452.39	-38.5
2453.12	-31
2453.86	-22
2454.59	-32
2455.33	-33
2456.06	-33.5
2456.79	-45
2457.53	-38
2458.26	-32.5
2459	-26
2459.73	-36
2460.46	-28.5
2461.2	-44
2461.93	-24
2462.66	-35.5
2463.4	-35
2464.13	-42
2464.86	-48.5
2465.59	-37
2466.32	-32
2467.06	-30
2467.79	-28.5
2468.52	-36.5
2469.25	-39
2469.98	-39.5
2470.71	-32.5
2471.44	-35
2472.17	-40.5
2472.9	-16.5
2473.63	-49.5
2474.36	-28.5
2475.09	-32
2475.82	-30.5
2476.55	-34.5
2477.28	-42
2478.01	-31
2478.74	-45
2479.47	-43.5
2480.19	-43
2480.92	-30
2481.65	-40
2482.38	-37.5
2483.11	-37
2483.83	-33.5
2484.56	-34
2485.29	-52
2486.01	-29.5
2486.74	-30
2487.47	-23
2488.19	-51
2488.92	-26.5
2489.65	-32
2490.37	-32
2491.1	-34
2491.82	-37.5
2492.55	-36.5
2493.27	-28.25
2494	-32.5
2494.72	-30.5
2495.45	-32
2496.17	-45
2496.89	-29.5
2497.62	-43
2498.34	-34
2499.06	-41
2499.79	-35.5
2500.51	-46.5
2501.23	-48
2501.96	-27.5
2502.68	-24.5
2503.4	-32
2504.12	-28.5
2504.84	-23
2505.57	-38
2506.29	-46
2507.01	-30.5
2507.73	-26.5
2508.45	-40
2509.17	-47
2509.89	-29
2510.61	-38.5
2511.33	-48
2512.05	-38
2512.77	-31.5
2513.49	-31
2514.21	-24
2514.93	-41
2515.65	-30.5
2516.37	-49
2517.09	-28
2517.81	-18.5
2518.52	-34
2519.24	-33.5
2519.96	-41
2520.68	-29
2521.4	-33
2522.11	-41
2522.83	-19
2523.55	-25.5
2524.26	-39
2524.98	-37
2525.7	-22.5
2526.41	-33.5
2527.13	-28
2527.84	-42
2528.56	-30.5
2529.28	-35.5
2529.99	-34
2530.71	-34.5
2531.42	-31.5
2532.14	-44
2532.85	-34
2533.56	-20
2534.28	-42
2534.99	-37
2535.71	-30
2536.42	-39.5
2537.13	-36.5
2537.85	-54
2538.56	-25
2539.27	-34
2539.98	-48
2540.7	-40
2541.41	-34
2542.12	-27
2542.83	-33.5
2543.54	-32
2544.26	-42
2544.97	-24.5
2545.68	-38
2546.39	-21.5
2547.1	-36
2547.81	-40
2548.52	-39
2549.23	-22.5
2549.94	-41.5
2550.65	-37
2551.36	-31.5
2552.07	-27
2552.78	-36
2553.49	-33
2554.2	-28.5
2554.91	-32
2555.61	-35
2556.32	-44
2557.03	-27.5
2557.74	-28
2558.45	-27
2559.15	-36
2559.86	-26.5
2560.57	-38
2561.27	-39.5
2561.98	-20
2562.69	-26.5
2563.39	-48.5
2564.1	-25
2564.81	-34.5
2565.51	-37
2566.22	-39
2566.92	-24
2567.63	-29
2568.33	-36
2569.04	-28
2569.74	-31.5
2570.45	-39
2571.15	-35.5
2571.86	-30
2572.56	-21.5
2573.26	-36
2573.97	-24
2574.67	-35.5
2575.37	-34
2576.08	-48
2576.78	-27.5
2577.48	-34.5
2578.19	-23.5
2578.89	-41.5
2579.59	-42
2580.29	-29
2580.99	-27.5
2581.69	-31
2582.4	-29.5
2583.1	-29
2583.8	-29
2584.5	-35
2585.2	-31.5
2585.9	-32
2586.6	-42
2587.3	-47
2588	-22
2588.7	-42
2589.4	-36.5
2590.1	-21
2590.8	-40
2591.5	-34
2592.19	-45
2592.89	-19
2593.59	-34.5
2594.29	-30
2594.99	-22.5
2595.68	-21.5
2596.38	-30
2597.08	-38
2597.78	-41
2598.47	-35.5
2599.17	-38
2599.87	-31
2600.56	-21.5
2601.26	-40
2601.96	-40
2602.65	-27.5
2603.35	-33
2604.04	-35
2604.74	-43
2605.43	-24
2606.13	-34.5
2606.82	-23
2607.52	-25
2608.21	-25.5
2608.91	-42
2609.6	-24.5
2610.29	-30.5
2610.99	-23
2611.68	-29
2612.37	-27
2613.07	-34
2613.76	-35
2614.45	-25
2615.15	-29.5
2615.84	-29
2616.53	-28.5
2617.22	-28
2617.91	-26.5
2618.6	-25
2619.3	-36
2619.99	-32
2620.68	-27
2621.37	-35
2622.06	-37
2622.75	-32
2623.44	-26.5
2624.13	-35
2624.82	-40
2625.51	-22
2626.2	-32.5
2626.89	-36.5
2627.58	-40
2628.27	-30
2628.96	-55
2629.64	-27.5
2630.33	-24
2631.02	-36
2631.71	-40
2632.4	-28
2633.08	-26
2633.77	-23
2634.46	-31
2635.15	-36
2635.83	-30
2636.52	-34
2637.21	-35
2637.89	-33
2638.58	-38
2639.26	-48
2639.95	-35
2640.64	-41
2641.32	-25
2642.01	-23
2642.69	-21.5
2643.38	-27.5
2644.06	-29
2644.75	-30
2645.43	-28.5
2646.11	-24
2646.8	-37.5
2647.48	-34
2648.16	-29
2648.85	-33.5
2649.53	-20
2650.21	-25
2650.9	-38
2651.58	-54
2652.26	-33
2652.94	-34
2653.63	-24.5
2654.31	-42
2654.99	-33
2655.67	-33.5
2656.35	-22
2657.03	-45
2657.71	-30.5
2658.39	-43.5
2659.08	-30
2659.76	-31.5
2660.44	-32
2661.12	-41
2661.8	-39
2662.48	-37
2663.15	-30
2663.83	-28
2664.51	-35
2665.19	-29
2665.87	-32
2666.55	-44.5
2667.23	-30
2667.91	-27
2668.58	-29.5
2669.26	-30
2669.94	-26
2670.62	-29
2671.29	-39.5
2671.97	-28.5
2672.65	-23
2673.32	-41
2674	-30
2674.68	-39
2675.35	-32.5
2676.03	-38
2676.7	-39
2677.38	-24
2678.06	-32.5
2678.73	-37.5
2679.41	-51
2680.08	-28
2680.75	-28
2681.43	-41
2682.1	-20
2682.78	-22
2683.45	-28
2684.12	-48.5
2684.8	-22
2685.47	-30
2686.14	-45
2686.82	-30
2687.49	-31.5
2688.16	-32.5
2688.83	-34
2689.51	-25
2690.18	-27
2690.85	-28
2691.52	-47
2692.19	-23.5
2692.86	-32
2693.54	-23.9864
2694.21	-32.3964
2694.88	-29.0788
2695.55	-25.3373
2696.22	-46.0199
2696.89	-38.1734
2697.56	-23.6678
2698.23	-34.9633
2698.9	-21.0011
2699.57	-32.2177
2700.24	-31.029
2700.91	-35.5895
2701.57	-29.8398
2702.24	-30.9918
2702.91	-28.9315
2703.58	-38.3817
2704.25	-32.9034
2704.92	-24.5566
2705.58	-44.6588
2706.25	-31.1881
2706.92	-28.309
2707.58	-30.9621
2708.25	-38.0965
2708.92	-31.2174
2709.59	-25.122
2710.25	-33.2994
2710.92	-31.8963
2711.58	-24.598
2712.25	-20.9557
2712.92	-29.3128
2713.58	-30.1772
2714.25	-28.5539
2714.91	-26.5569
2715.58	-27.7508
2716.24	-25.3227
2716.91	-31.613
2717.57	-30.0197
2718.23	-37.1212
2718.9	-30.0938
2719.56	-22.2475
2720.23	-23.9489
2720.89	-19.1288
2721.55	-17.7627
2722.22	-30.3022
2722.88	-25.9731
2723.54	-22.0188
2724.2	-38.1525
2724.87	-28.8419
2725.53	-19.9911
2726.19	-29.5311
2726.85	-20.7252
2727.51	-27.2239
2728.18	-32.6627
2728.84	-26.5671
2729.5	-24.489
2730.16	-20.4856
2730.82	-21.207
2731.48	-29.8642
2732.14	-27.0941
2732.8	-31.27
2733.46	-28.1315
2734.12	-30.8962
2734.78	-33.6043
2735.44	-40.2217
2736.1	-31.3711
2736.76	-27.0135
2737.42	-33.1434
2738.07	-25.2297
2738.73	-23.2173
2739.39	-32.0718
2740.05	-30.9612
2740.71	-24.4124
2741.37	-19.2826
2742.02	-21.6995
2742.68	-24.5302
2743.34	-22.7809
2743.99	-29.0463
2744.65	-28.55
2745.31	-21.7638
2745.96	-23.7347
2746.62	-19.6293
2747.28	-25.9174
2747.93	-20.4404
2748.59	-20.4572
2749.24	-24.7218
2749.9	-16.5582
2750.55	-27.8952
2751.21	-13.4817
2751.86	-27.1851
2752.52	-14.4338
2753.17	-19.8262
2753.83	-16.9432
2754.48	-26.4887
2755.14	-25.1838
2755.79	-19.2005
2756.44	-20.6698
2757.1	-27.4044
2757.75	-24.5758
2758.4	-15.7266
2759.05	-20.2796
2759.71	-35.9381
2760.36	-28.9568
2761.01	-13.189
2761.66	-16.1998
2762.32	-25.0406
2762.97	-19.4229
2763.63	-0.5
2764.32	-21
2765.01	-22
2765.69	-8
2766.38	-8
2767.07	-17
2767.75	-21.5
2768.44	-17.5
2769.12	-14.5
2769.81	-24
2770.49	-4.5
2771.18	-20.5
2771.87	-12
2772.55	-26
2773.24	-21
2773.92	-10
2774.6	-22
2775.29	-18
2775.97	-3
2776.66	-17.5
2777.34	-23
2778.03	-15
2778.71	1
2779.39	-13
2780.08	-19
2780.76	-10.5
2781.44	-17
2782.12	-30
2782.81	-15
2783.49	-8
2784.17	-6
2784.85	-23
2785.54	-14.5
2786.22	-13
2786.9	-20.5
2787.58	-18
2788.26	-8.5
2788.94	-27
2789.63	-17
2790.31	-19.5
2790.99	-13.5
2791.67	-20
2792.35	-28
2793.03	-22
2793.71	-7.5
2794.39	-20
2795.07	-10
2795.75	-22
2796.43	-22
2797.11	-20.5
2797.79	-18.5
2798.46	-10.5
2799.14	-24.5
2799.82	-17
2800.5	-15
2801.18	-12
2801.86	-24
2802.54	-21.5
2803.21	-19
2803.89	-24.5
2804.57	-4
2805.25	-16
2805.92	-13.5
2806.6	-27
2807.28	-20
2807.95	-10
2808.63	-30
2809.31	-21
2809.98	-18.5
2810.66	-25
2811.34	-31.5
2812.01	-19.5
2812.69	-17.5
2813.36	-25.5
2814.04	-22
2814.71	-20.5
2815.39	-9
2816.06	-7
2816.74	-28
2817.41	-17
2818.09	-17
2818.76	-16.5
2819.44	-14.5
2820.11	-18.5
2820.78	-13.5
2821.46	-23
2822.13	-45
2822.8	-7.5
2823.48	-17.5
2824.15	-28.5
2824.82	-18
2825.49	-12
2826.17	-19.5
2826.84	-21
2827.51	-18.5
2828.18	-6.5
2828.86	-9.5
2829.53	-22
2830.2	-6
2830.87	-11.5
2831.54	-27
2832.21	-20
2832.88	-9
2833.55	-20
2834.22	-18
2834.9	-21
2835.56	-8.5
2836.23	-7
2836.91	-26
2837.57	-13
2838.24	-7
2838.91	-16
2839.58	-19
2840.25	-18.5
2840.92	-30
2841.59	-18
2842.26	6.5
2842.93	-5
2843.6	-22
2844.26	-13
2844.93	-14.5
2845.6	-2
2846.27	-12
2846.93	-3
2847.6	4.5
2848.27	-23.5
2848.94	-5
2849.6	-10
2850.27	-5
2850.94	1
2851.6	-9
2852.27	1.5
2852.94	-1
2853.6	-3
2854.27	-7
2854.93	3
2855.6	-15
2856.26	-7
2856.93	-4
2857.59	-11
2858.26	-2
2858.92	-16
2859.59	-19
2860.25	-1.5
2860.92	-26
2861.58	-11.5
2862.24	-1.5
2862.91	-23
2863.57	-12
2864.23	-7.5
2864.9	-13
2865.56	-22
2866.22	-10.5
2866.89	-11
2867.55	-14
2868.21	-11
2868.87	-23.5
2869.54	-6
2870.2	-25
2870.86	-27
2871.52	-10.5
2872.18	-19
2872.84	-15
2873.51	-35
2874.17	6.5
2874.83	-8.5
2875.49	-29
2876.15	-13.5
2876.81	-8
2877.47	-42
2878.13	-27
2878.79	-11
2879.45	-12
2880.11	-20
2880.77	-13.5
2881.43	-17
2882.09	-16
2882.75	-21
2883.4	-16.5
2884.06	-18
2884.72	-31
2885.38	-19.5
2886.04	-19.5
2886.7	-25.5
2887.35	-21.5
2888.01	-24
2888.67	-11.5
2889.33	-18
2889.98	-15
2890.64	-15
2891.3	-12.5
2891.95	-46
2892.61	-14.5
2893.27	-8
2893.92	-10.5
2894.58	-32
2895.23	-11
2895.89	-20
2896.55	-22
2897.2	-10.5
2897.86	-12.5
2898.51	-15.5
2899.17	-24
2899.82	-15
2900.48	-29
2901.13	-15
2901.79	-17
2902.44	-14.5
2903.09	-22.5
2903.75	-23
2904.4	-6
2905.05	-29.5
2905.71	-9.5
2906.36	-36
2907.01	-22
2907.67	-16.5
2908.32	-19.5
2908.97	-14.5
2909.63	-12
2910.28	-16
2910.93	-27
2911.58	-21
2912.23	-30.5
2912.88	-28
2913.54	-29
2914.19	-23
2914.84	-14.5
2915.49	-44
2916.14	-13
2916.79	-23
2917.44	-32.5
2918.09	-29
2918.74	-20
2919.39	-11.5
2920.04	-21
2920.69	-18.5
2921.34	-14.5
2921.99	-6
2922.64	-28
2923.29	-21
2923.94	-23.5
2924.59	-23
2925.23	-29
2925.88	-21.5
2926.53	-14.5
2927.18	-20
2927.83	-32
2928.48	-27.5
2929.12	-8.5
2929.77	-17.5
2930.42	-17
2931.07	-18
2931.71	-18.5
2932.36	-29
2933.01	-19
2933.65	-8
2934.3	-16.5
2934.95	-27.5
2935.59	-19
2936.24	-14.5
2936.88	-35
2937.53	-38
2938.17	-15.5
2938.82	-13.5
2939.46	-27.5
2940.11	-4.5
2940.75	-12
2941.4	-18
2942.04	-42
2942.69	-20
2943.33	-23.5
2943.98	-41
2944.62	-23.5
2945.26	-23
2945.91	-29
2946.55	-20.5
2947.19	-12.5
2947.84	-28
2948.48	-17
2949.12	-41
2949.76	-20
2950.41	-11.5
2951.05	-40
2951.69	-34.5
2952.33	-20
2952.98	-20.5
2953.62	-27.5
2954.26	-24
2954.9	-32.5
2955.54	-26
2956.18	-27
2956.82	-26
2957.46	-25.5
2958.1	-37
2958.74	-40.5
2959.38	-27.5
2960.02	-35
2960.66	-53
2961.3	-23
2961.94	-30.5
2962.58	-47
2963.22	-23.5
2963.86	-23
2964.5	-23
2965.14	-27.5
2965.78	-35
2966.42	-33
2967.05	-35
2967.69	-62
2968.33	-35.5
2968.97	-29
2969.61	-31.5
2970.24	-28.5
2970.88	-35
2971.52	-28
2972.15	-52
2972.79	-30.5
2973.43	-25
2974.06	-38
2974.7	-25
2975.34	-17.5
2975.97	-27.5
2976.61	-47
2977.24	-47
2977.88	-23.5
2978.52	-30
2979.15	-66
2979.79	-38.5
2980.42	-31.5
2981.06	-32.5
2981.69	-46
2982.32	-23
2982.96	-20
2983.59	-31
2984.23	-29.5
2984.86	-35
2985.49	-40.5
2986.13	-41.5
2986.76	-20
2987.39	-57.5
2988.03	-56.5
2988.66	-29
2989.29	-38
2989.93	-28
2990.56	-41
2991.19	-25.5
2991.82	-35
2992.45	-45
2993.09	-36
2993.72	-29.5
2994.35	-36
2994.98	-44
2995.61	-46
2996.24	-42
2996.87	-29.5
2997.5	-36
2998.14	-30.5
2998.77	-31.5
2999.4	-30
3000.03	-20
3000.66	-42.5
3001.29	-28.5
3001.91	-41
3002.54	-26
3003.17	-21.5
3003.8	-30.5
3004.43	-60
3005.06	-40
3005.69	-20
3006.32	-37.5
3006.95	-17
3007.57	-38
3008.2	-34.5
3008.83	-22
3009.46	-28
3010.08	-21
3010.71	-18.5
3011.34	-31
3011.97	-43.5
3012.59	-28
3013.22	-27
3013.85	-34
3014.47	-38
3015.1	-35
3015.72	-33
3016.35	-40.5
3016.98	-27
3017.6	-31.5
3018.23	-50.5
3018.85	-21.5
3019.48	-23
3020.1	-22.5
3020.73	-39
3021.35	-25.5
3021.98	-35
3022.6	-40
3023.23	-17
3023.85	-27
3024.47	-19
3025.1	-45
3025.72	-34.5
3026.34	-32.5
3026.97	-41
3027.59	-42.5
3028.21	-27
3028.84	-45
3029.46	-44
3030.08	-22
3030.7	-22
3031.32	-21.5
3031.95	-35
3032.57	-38
3033.19	-32
3033.81	-43
3034.43	-40.5
3035.05	-34
3035.68	-31
3036.3	-46.5
3036.92	-39.5
3037.54	-35
3038.16	-33
3038.78	-50
3039.4	-27
3040.02	-45
3040.64	-32.5
3041.26	-57
3041.88	-23.5
3042.5	-37
3043.12	-48
3043.73	-30.5
3044.35	-19.5
3044.97	-42
3045.59	-36
3046.21	-42.5
3046.83	-38
3047.44	-33
3048.06	-29.5
3048.68	-21.5
3049.3	-49
3049.92	-37
3050.53	-29.5
3051.15	-30.5
3051.77	-37.5
3052.38	-49
3053	-27.5
3053.62	-42
3054.23	-35
3054.85	-39
3055.46	-38.5
3056.08	-32.5
3056.7	-35.5
3057.31	-34
3057.93	-29
3058.54	-36
3059.16	-43.5
3059.77	-34
3060.39	-38.5
3061	-41
3061.61	-16
3062.23	-35.5
3062.84	-43.5
3063.46	-49
3064.07	-30
3064.68	-32
3065.3	-57.5
3065.91	-40
3066.52	-34
3067.14	-40.5
3067.75	-41.5
3068.36	-27.5
3068.98	-34.5
3069.59	-46.5
3070.2	-49.5
3070.81	-39.5
3071.42	-24.5
3072.04	-46
3072.65	-36.5
3073.26	-33.5
3073.87	-33
3074.48	-39
3075.09	-42.5
3075.7	-34.5
3076.31	-33.5
3076.92	-35.5
3077.53	-41
3078.14	-34.5
3078.75	-37
3079.36	-38
3079.97	-35
3080.58	-41
3081.19	-35
3081.8	-26.5
3082.41	-37
3083.02	-39
3083.63	-31
3084.24	-33
3084.84	-29
3085.45	-42
3086.06	-44
3086.67	-32.5
3087.28	-43
3087.88	-29
3088.49	-33
3089.1	-24.5
3089.71	-40
3090.31	-50
3090.92	-31.5
3091.53	-38.5
3092.13	-39.5
3092.74	-32.5
3093.34	-38.5
3093.95	-38
3094.56	-43
3095.16	-26.5
3095.77	-25
3096.37	-36
3096.98	-42
3097.58	-30.5
3098.19	-35.5
3098.79	-30.5
3099.4	-40.5
3100	-24
3100.61	-50
3101.21	-33
3101.81	-27.5
3102.42	-21
3103.02	-51
3103.63	-30
3104.23	-31.5
3104.83	-29
3105.43	-31.5
3106.04	-35.5
3106.64	-35
3107.24	-41
3107.85	-27
3108.45	-30
3109.05	-19.5
3109.65	-42
3110.25	-55
3110.86	-35.5
3111.46	-35.5
3112.06	-28
3112.66	-43
3113.26	-27.5
3113.86	-47
3114.46	-28.5
3115.06	-31.5
3115.66	-31.5
3116.26	-31.5
3116.86	-36.5
3117.46	-28
3118.06	-35
3118.66	-37.5
3119.26	-26.5
3119.86	-33
3120.46	-39.5
3121.06	-28
3121.66	-31
3122.26	-32
3122.85	-53
3123.45	-27
3124.05	-20
3124.65	-44
3125.25	-41.5
3125.84	-34
3126.44	-31
3127.04	-38
3127.64	-36
3128.23	-24.5
3128.83	-30.5
3129.43	-26.5
3130.02	-45
3130.62	-23.5
3131.22	-25
3131.81	-38
3132.41	-36
3133	-22.5
3133.6	-37
3134.19	-36
3134.79	-24.5
3135.39	-24
3135.98	-45
3136.58	-36.5
3137.17	-27
3137.76	-40
3138.36	-37.5
3138.95	-35.5
3139.55	-41
3140.14	-38.5
3140.73	-33
3141.33	-32.5
3141.92	-38.5
3142.51	-32.5
3143.11	-37.5
3143.7	-42.5
3144.29	-50
3144.89	-26
3145.48	-31
3146.07	-24
3146.66	-44.5
3147.26	-29
3147.85	-51
3148.44	-43
3149.03	-38.5
3149.62	-55
3150.21	-26
3150.8	-35
3151.39	-31.5
3151.99	-23.5
3152.58	-37
3153.17	-36
3153.76	-18
3154.35	-22
3154.94	-24
3155.53	-34
3156.12	-18.5
3156.71	-31.5
3157.29	-46.5
3157.88	-33.5
3158.47	-33
3159.06	-26
3159.65	-33
3160.24	-37
3160.83	-21
3161.42	-40
3162	-30
3162.59	-41
3163.18	-33.5
3163.77	-55
3164.35	-35
3164.94	-28.5
3165.53	-33
3166.12	-45
3166.7	-35
3167.29	-36.5
3167.88	-34
3168.46	-42.5
3169.05	-45
3169.64	-34.5
3170.22	-41
3170.81	-32
3171.39	-29.5
3171.98	-32.5
3172.56	-46
3173.15	-23
3173.73	-27.5
3174.32	-33
3174.9	-42
3175.49	-45.5
3176.07	-40.5
3176.65	-29
3177.24	-38
3177.82	-23.5
3178.41	-38
3178.99	-50
3179.57	-19.5
3180.16	-37
3180.74	-32.5
3181.32	-27.5
3181.91	-37
3182.49	-33
3183.07	-33
3183.65	-31
3184.23	-30
3184.82	-27.5
3185.4	-48
3185.98	-32.5
3186.56	-34
3187.14	-23.5
3187.72	-26
3188.3	-37
3188.89	-29
3189.47	-35.5
3190.05	-26
3190.63	-42
3191.21	-38
3191.79	-41
3192.37	-25
3192.95	-20
3193.53	-45
3194.11	-35
3194.69	-34
3195.26	-39.5
3195.84	-38
3196.42	-27.5
3197	-36
3197.58	-44.5
3198.16	-34
3198.74	-31.5
3199.31	-27
3199.89	-43
