100.582	364
101.867	377
103.152	360
104.437	347
105.721	388
107.004	364
108.287	333.5
109.571	340
110.853	337
112.136	318
113.418	326.5
114.7	338
115.981	336
117.262	344.5
118.543	319.5
119.823	296
121.103	309.5
122.383	312
123.663	289
124.942	312.5
126.221	288
127.499	274
128.777	294
130.056	292.5
131.333	290.5
132.61	256
133.887	267
135.163	277
136.439	246
137.715	282
138.992	278
140.267	286
141.541	243
142.816	250
144.09	242
145.364	262
146.637	255
147.911	251
149.184	221
150.457	211.5
151.729	226
153.001	234.5
154.273	215.5
155.544	215.5
156.815	204.5
158.086	210.5
159.356	211
160.626	197
161.896	208
163.165	195.5
164.434	172.5
165.703	185.5
166.971	186
168.24	173.5
169.507	174
170.774	174
172.042	183
173.309	165
174.575	155
175.841	166
177.107	167
178.373	154
179.637	147.5
180.902	154
182.167	148
183.431	141
184.695	140.5
185.958	143
187.222	135
188.485	133
189.747	154.5
191.009	148.5
192.272	111
193.534	140.5
194.795	164
196.055	124
197.316	123
198.577	132
199.837	134
201.096	133
202.356	126
203.615	166.5
204.873	139.5
206.132	114
207.39	126.5
208.648	148
209.905	134
211.162	124
212.419	129
213.675	135
214.932	127.5
216.187	138.5
217.443	131
218.697	133
219.953	109
221.207	129
222.462	133
223.715	112
224.969	132.5
226.222	118.5
227.475	118
228.727	111.5
229.98	118.5
231.232	128.5
232.483	118
233.734	97
234.986	120
236.236	126.5
237.486	114.5
238.737	103
239.986	124
241.235	141
242.484	130
243.733	156
244.981	161
246.229	176
247.477	189
248.725	213
249.971	215.5
251.219	200
252.465	182
253.711	160.5
254.957	126.5
256.203	104.5
257.448	125
258.693	151.5
259.937	137
261.181	114.5
262.425	120
263.669	114.5
264.912	106
266.155	100
267.398	115.5
268.64	107.5
269.881	128
271.123	107
272.364	111
273.605	101
274.846	102
276.086	104.5
277.326	93
278.566	88
279.806	89
281.045	105
282.283	105.5
283.522	85
284.76	88
285.998	103
287.235	87.5
288.473	64
289.71	97.5
290.946	89
292.182	87
293.418	77.5
294.654	89
295.888	87
297.123	90
298.358	81.5
299.592	79
300.826	85.5
302.06	67
303.293	88
304.526	81.5
305.759	84
306.991	70
308.223	76
309.455	70
310.687	71
311.917	68.5
313.148	91
314.379	58
315.609	63
316.839	72
318.068	75.5
319.297	76
320.526	65.5
321.754	68.5
322.982	66
324.21	70
325.438	74.5
326.665	82.5
327.892	74
329.118	47
330.345	79
331.571	77
332.797	60
334.022	52.5
335.247	80.5
336.471	68.5
337.696	69
338.92	75
340.144	76
341.367	70
342.591	42
343.813	81
345.036	88
346.257	68
347.48	60
348.701	76.5
349.922	61.5
351.143	38
352.363	61
353.583	81.5
354.803	60.5
356.023	56
357.243	77
358.462	58
359.68	52
360.899	65
362.117	65.5
363.334	67.5
364.551	56.5
365.769	64
366.986	70.5
368.202	35
369.418	49
370.633	69
371.849	73
373.065	53
374.279	53
375.494	61
376.708	56.5
377.921	37
379.136	57.5
380.349	58
381.562	42
382.774	46
383.987	66
385.198	51
386.41	35
387.621	57.5
388.832	55.5
390.043	29
391.253	49.5
392.463	53.5
393.674	61
394.883	39
396.092	52.5
397.301	39.5
398.509	60.5
399.717	39
400.925	51
402.133	48.5
403.34	48
404.547	65
405.753	53
406.96	53.5
408.165	43.5
409.371	42
410.576	40
411.781	36
412.986	30.5
414.191	42
415.394	48
416.598	40
417.802	47
419.005	52
420.208	46
421.41	45.5
422.613	55
423.815	50.5
425.016	53
426.217	24.5
427.418	47
428.619	30
429.818	48
431.019	50.5
432.218	35
433.418	37
434.617	31.5
435.815	24
437.014	51
438.212	40
439.41	33
440.607	52
441.805	31
443.001	43
444.198	32
445.394	49.5
446.59	35
447.785	23
448.98	22.5
450.175	33
451.37	36
452.564	29
453.758	41.5
454.952	37
456.145	33
457.339	28
458.531	18
459.724	30
460.916	40.5
462.107	28.5
463.299	40.5
464.49	42
465.681	23
466.871	35.5
468.062	29
469.252	40
470.441	31
471.631	41
472.819	35
474.008	24
475.196	17
476.385	35
477.572	12
478.76	20.5
479.946	32
481.133	29
482.32	43
483.506	20
484.692	50
485.877	31
487.063	19
488.247	26.5
489.432	40.5
490.616	23.5
491.8	22
492.984	34
494.167	33
495.35	22
496.533	32
497.715	24
498.897	27.5
500.079	11
501.26	19
502.441	26
503.622	31
504.803	15
505.983	38
507.163	38
508.342	26
509.522	21
510.701	29
511.88	29
513.058	23
514.236	29
515.413	15
516.591	25
517.768	24.5
518.945	25.5
520.121	21
521.297	32.5
522.473	25
523.648	32
524.823	30.5
525.998	3
527.173	28.5
528.348	27
529.522	6
530.694	6.5
531.868	17.5
533.041	19
534.214	27.5
535.386	38.5
536.558	25
537.731	22.5
538.902	20
540.073	33.5
541.244	12.5
542.414	25.5
543.585	20
544.754	28
545.924	8
547.094	24
548.262	28.5
549.431	26
550.6	21.5
551.767	-1
552.935	20.5
554.103	31.5
555.27	15
556.436	26
557.603	38
558.769	22.5
559.935	-3
561.1	27.5
562.266	26.5
563.431	9
564.595	12.5
565.759	21.5
566.924	22
568.087	17.5
569.25	23.5
570.414	25.5
571.576	9
572.739	8
573.901	23
575.062	13.5
576.224	22.5
577.385	3.5
578.546	18.5
579.707	14
580.867	11
582.028	16
583.187	20.5
584.347	16.5
585.505	13
586.664	18
587.822	26
588.98	15
590.138	-2
591.296	14.5
592.453	28
593.61	16
594.767	19
595.922	15
597.079	9
598.234	17
599.39	20
600.544	21
601.699	27
602.854	16
604.008	11
605.161	8
606.315	8
607.468	16
608.621	37
609.774	14.5
610.926	18
612.078	25
613.229	9
614.381	17
615.532	11
616.682	17
617.833	10
618.983	14
620.133	12
621.282	12
622.431	-4
623.58	13
624.729	16
625.877	17
627.025	11
628.172	11
629.32	16
630.467	16
631.614	-1.5
632.76	7.5
633.906	12
635.052	1
636.197	16
637.343	13
638.488	16
639.632	-4
640.776	11.5
641.92	2.5
643.064	8
644.207	6
645.35	14
646.493	19
647.635	5
648.777	10.5
649.919	18.5
651.06	-1
652.202	9
653.342	3.5
654.483	0
655.624	12
656.764	4
657.903	6.5
659.043	10
660.181	-12
661.32	8
662.459	22
663.596	-9
664.735	-3.5
665.872	-0.5
667.009	-3
668.146	11
669.282	-5
670.419	0.5
671.555	2
672.69	0
673.826	15
674.96	29.5
676.096	12
677.23	12
678.364	10
679.498	2
680.631	6
681.765	16
682.897	19.5
684.03	11.5
685.163	-16
686.294	11
687.426	15
688.557	4
689.689	17
690.819	16.5
691.949	13
693.079	11
694.21	15
695.339	12.5
696.468	9
697.597	12
698.725	20.5
699.854	18.5
700.982	10
702.11	8
703.237	20
704.364	4
705.491	20
706.617	4
707.744	6
708.87	15.5
709.995	7
711.12	11
712.245	35.5
713.37	15
714.495	14.5
715.618	13.5
716.742	17.5
717.865	2
718.989	29
720.112	22.5
721.234	18.5
722.356	6.5
723.478	24
724.6	25
725.721	11
726.842	12.5
727.962	15
729.083	5
730.203	2
731.323	21.5
732.442	18.5
733.562	14
734.681	6
735.799	13
736.917	26.5
738.036	13
739.153	7
740.27	22
741.387	12
742.505	7
743.62	11
744.736	6
745.853	13
746.968	12.5
748.083	9
749.199	10
750.313	1
751.427	-2
752.541	-5
753.655	14.5
754.768	-7
755.882	8
756.994	11.5
758.107	13.5
759.219	-8
760.331	13
761.443	13.5
762.554	-4
763.665	0.5
764.776	7.5
765.885	8
766.996	2.5
768.106	27.5
769.215	16
770.324	9
771.434	1
772.542	12
773.65	12
774.758	8.5
775.865	13.5
776.973	10.5
778.081	-2.5
779.187	6
780.293	11
781.399	13.5
782.506	0.5
783.611	-5
784.716	13.5
785.821	17.5
786.926	-10
788.03	11.5
789.134	6.5
790.238	-0.5
791.341	-7
792.444	10.5
793.547	6
794.65	-21
795.752	3
796.854	13
797.956	7
799.057	9
800.158	12.5
801.259	11
802.359	3.5
803.459	5.5
804.559	24.5
805.659	14.5
806.758	9
807.857	4
808.955	14.5
810.053	0
811.152	-2
812.25	14.5
813.347	14
814.444	5
815.541	31.5
816.638	11.5
817.733	13.5
818.83	16
819.925	4
821.02	25.5
822.115	29.5
823.21	17
824.305	26.5
825.398	22
826.492	20.5
827.586	19
828.679	37
829.772	35
830.865	26
831.957	20
833.049	33.5
834.141	29
835.232	28
836.323	32
837.414	37
838.505	36
839.595	37
840.685	46.5
841.774	31
842.864	36.5
843.952	38
845.041	50
846.129	38.5
847.218	33
848.306	31
849.393	27
850.48	32
851.567	27.5
852.654	28.5
853.74	39.5
854.826	34
855.912	31.5
856.997	44.5
858.082	34.5
859.167	28
860.252	38.5
861.336	32.5
862.42	18
863.504	30
864.587	33.5
865.67	37.5
866.753	33
867.835	44
868.917	42
869.999	32
871.081	20
872.162	32.5
873.243	33
874.323	31
875.404	29
876.484	31
877.564	32.5
878.643	24.5
879.722	17
880.802	38
881.88	37
882.958	25
884.036	30
885.113	27.5
886.191	33
887.268	12.5
888.344	33
889.421	14
890.498	31.5
891.573	23.5
892.649	32
893.724	28.5
894.799	28.5
895.874	35
896.948	22.5
898.022	12
899.096	24
900.17	27
901.243	41
902.315	15
903.389	35
904.461	31
905.533	19
906.605	25
907.676	30.5
908.747	22.5
909.818	7
910.888	25
911.958	21.5
913.028	28
914.098	32
915.167	17
916.237	26
917.306	-2
918.374	13
919.442	43.5
920.51	28
921.577	13
922.644	19.5
923.711	32.5
924.778	20
925.845	8
926.911	21
927.977	27
929.042	22
930.107	27
931.173	37.5
932.237	9
933.301	14.5
934.365	13
935.429	27
936.492	23
937.556	25
938.619	31
939.681	22
940.743	10
941.805	21
942.867	16
943.928	22.5
944.989	3
946.05	27
947.11	30.5
948.17	2
949.23	3.5
950.29	25.5
951.349	20
952.409	16
953.467	11
954.526	36
955.584	17.5
956.641	16
957.699	16
958.756	32.5
959.813	13
960.869	7.5
961.926	20
962.982	5
964.038	20
965.094	34
966.149	38
967.204	19
968.258	26.5
969.312	33
970.366	32
971.42	18
972.473	14
973.527	36
974.58	19.5
975.631	22
976.684	18.5
977.736	40.5
978.787	23
979.839	-4
980.89	24
981.94	12
982.991	18.5
984.041	-7.5
985.091	13.5
986.141	-1
987.19	0
988.239	12
989.288	16
990.336	-0.5
991.384	-1
992.432	18.5
993.48	13.5
994.527	7
995.574	10.5
996.62	17.5
997.666	9
998.713	0
999.759	19.5
1000.8	14
1001.85	15.5
1002.89	15
1003.94	7
1004.98	18.5
1006.03	-5
1007.07	8
1008.11	26.5
1009.16	6
1010.2	11
1011.24	8.5
1012.29	16
1013.33	0
1014.37	18
1015.41	22.5
1016.45	19
1017.49	5.5
1018.53	14
1019.57	24
1020.61	21
1021.65	2
1022.69	10.5
1023.73	26
1024.77	-4
1025.81	8.5
1026.85	17
1027.88	7
1028.92	-2
1029.96	10
1031	11
1032.03	18.5
1033.07	9
1034.1	14
1035.14	24.5
1036.18	8
1037.21	-6.5
1038.25	9
1039.28	16
1040.32	17
1041.35	18.5
1042.38	8.5
1043.42	11.5
1044.45	5
1045.48	21
1046.52	18
1047.55	1
1048.58	14
1049.61	24
1050.64	11
1051.67	4.5
1052.71	15.5
1053.74	24.5
1054.77	15.5
1055.8	14
1056.83	24
1057.85	41
1058.88	23.5
1059.91	36.5
1060.94	20.5
1061.97	20
1063	16
1064.03	26.5
1065.05	28.5
1066.08	16
1067.11	28
1068.13	30.5
1069.16	34.5
1070.19	33
1071.21	22
1072.24	41
1073.26	25.5
1074.29	-4
1075.31	37
1076.34	29
1077.36	34
1078.38	31
1079.41	40
1080.43	38.5
1081.45	31.5
1082.47	29
1083.5	29
1084.52	24.5
1085.54	25
1086.56	26
1087.58	20
1088.6	16
1089.62	34
1090.64	29
1091.66	38
1092.68	16
1093.7	20
1094.72	23
1095.74	10
1096.76	14.5
1097.78	8.5
1098.79	35
1099.81	21
1100.83	13
1101.85	24
1102.86	25
1103.88	10
1104.9	-4
1105.91	18
1106.93	16.5
1107.94	11.5
1108.96	8
1109.97	18
1110.99	2
1112	14
1113.01	21
1114.03	18
1115.04	7.5
1116.05	4.5
1117.07	24.5
1118.08	21.5
1119.09	2.5
1120.1	6.5
1121.11	9.5
1122.13	16
1123.14	14
1124.15	14
1125.16	12
1126.17	-6.5
1127.18	10.5
1128.19	22.5
1129.2	3
1130.2	-8
1131.21	2.5
1132.22	10.5
1133.23	-10
1134.24	8
1135.25	6
1136.25	11
1137.26	0.5
1138.27	16
1139.27	12
1140.28	0
1141.28	-11
1142.29	-4
1143.29	-0.5
1144.3	8
1145.3	3.5
1146.31	11
1147.31	16
1148.32	-4.5
1149.32	-4.39762
1150.32	8.59465
1151.33	3.57393
1152.33	2.88518
1153.33	1.42645
1154.33	-0.532655
1155.33	-13.3042
1156.34	-4.11218
1157.34	9.99795
1158.34	12.4839
1159.34	-0.404044
1160.34	8.41825
1161.34	-1.02294
1162.34	1.28869
1163.34	-1.73057
1164.34	9.69185
1165.34	6.92507
1166.33	-14.9009
1167.33	14.4119
1168.33	11.4303
1169.33	3.19834
1170.33	0.0831614
1171.32	9.98745
1172.32	3.51604
1173.32	2.98185
1174.31	-7.02077
1175.31	6.16009
1176.31	-0.88237
1177.3	19.596
1178.3	12.3924
1179.29	6.73981
1180.29	9.40357
1181.28	3.5047
1182.27	21.0249
1183.27	3.37194
1184.26	9.14195
1185.25	7.15892
1186.25	12.9634
1187.24	2.79321
1188.23	7.27749
1189.22	7.74372
1190.22	8.80787
1191.21	6.74873
1192.2	-2.32102
1193.19	14.5367
1194.18	5.76667
1195.17	8.56945
1196.16	2.54569
1197.15	14.0964
1198.14	7.71795
1199.13	13.9045
1200.12	12.3765
1201.11	9.58704
1202.09	11.6466
1203.08	11.846
1204.07	10.7557
1205.06	14.1051
1206.04	6.55045
1207.03	9.62057
1208.02	14.1743
1209	7.2914
1209.99	1.17954
1210.98	13.2583
1211.96	13.6117
1212.95	10.6868
1213.93	10.3324
1214.92	16.0118
1215.9	17.8138
1216.89	0.50025
1217.87	12.7225
1218.85	19.2429
1219.84	10.1698
1220.82	5.77435
1221.8	20.4341
1222.78	24.5258
1223.77	17.0289
1224.75	14.9709
1225.73	22.0452
1226.71	17.1607
1227.69	7.60141
1228.67	26.7515
1229.65	29.0206
1230.63	21.4472
1231.61	13.4395
1232.59	20.1732
1233.57	33.7398
1234.55	7.53603
1235.53	11.1481
1236.51	36.8004
1237.49	27.1922
1238.46	29.6467
1239.44	25.1256
1240.42	33.0242
1241.4	35.1566
1242.37	25.2434
1243.35	21.4167
1244.32	32.7422
1245.3	36.6475
1246.28	25.4744
1247.25	33.1056
1248.23	51.6428
1249.2	55.5934
1250.18	42.9011
1251.15	37.7874
1252.12	46.6921
1252.72	50
1253.73	54.5
1254.74	45
1255.75	54
1256.75	63
1257.76	53
1258.77	56
1259.78	37
1260.79	50
1261.79	59.5
1262.8	82
1263.81	50
1264.81	50
1265.82	57.5
1266.82	75
1267.83	41
1268.83	62
1269.84	64.5
1270.84	63
1271.85	51
1272.85	58
1273.86	57
1274.86	52
1275.86	56
1276.87	59.5
1277.87	46.5
1278.87	44
1279.88	44
1280.88	43.5
1281.88	48
1282.88	39
1283.88	30.5
1284.88	49.5
1285.88	48
1286.89	36.5
1287.89	60.5
1288.89	62
1289.89	40
1290.89	56
1291.89	58.5
1292.88	61
1293.88	49.5
1294.88	70.5
1295.88	57
1296.88	58
1297.88	57
1298.88	54.5
1299.87	64
1300.87	56
1301.87	70.5
1302.86	81
1303.86	77
1304.86	60
1305.85	59
1306.85	54
1307.85	55
1308.84	49
1309.84	69
1310.83	66
1311.83	36.5
1312.82	48.5
1313.81	57
1314.81	50
1315.8	34
1316.8	56.5
1317.79	60.5
1318.78	48
1319.77	26.5
1320.77	56
1321.76	39
1322.75	34
1323.74	33
1324.73	43.5
1325.72	37.5
1326.72	35
1327.71	28
1328.7	39
1329.69	23
1330.68	28.5
1331.67	43.5
1332.66	41
1333.65	27
1334.63	25
1335.62	38
1336.61	28
1337.6	17
1338.59	33.5
1339.58	34
1340.56	29
1341.55	28
1342.54	35
1343.53	40
1344.51	35
1345.5	36
1346.48	42
1347.47	35
1348.45	34
1349.44	35
1350.43	44
1351.41	15
1352.4	33.5
1353.38	35
1354.36	53
1355.35	20
1356.33	43
1357.31	38.5
1358.3	47.5
1359.28	36
1360.26	36.5
1361.25	29
1362.23	33
1363.21	39.5
1364.19	42
1365.17	38
1366.15	26.5
1367.14	36.5
1368.12	35.5
1369.1	34.5
1370.08	27
1371.06	47
1372.04	33
1373.02	24
1373.99	37.5
1374.97	31
1375.95	37
1376.93	15
1377.91	44
1378.89	35.5
1379.86	19
1380.84	20
1381.82	40
1382.8	33
1383.77	11
1384.75	19
1385.73	32
1386.7	34.5
1387.68	29
1388.65	23
1389.63	24
1390.6	23.5
1391.58	30
1392.55	41.5
1393.53	33
1394.5	28.5
1395.48	29.5
1396.45	41.5
1397.42	30.5
1398.4	18
1399.37	37.5
1400.34	43.5
1401.31	18
1402.29	18
1403.26	40.5
1404.23	14
1405.2	21
1406.17	20
1407.14	41
1408.11	16
1409.08	24
1410.05	20
1411.02	31
1411.99	15.5
1412.96	23
1413.93	35
1414.9	20.5
1415.87	11
1416.84	40.5
1417.81	42.5
1418.78	41
1419.74	18
1420.71	46
1421.68	29
1422.65	18
1423.61	25
1424.58	49
1425.55	33
1426.51	34.5
1427.48	47
1428.44	49
1429.41	59.5
1430.37	46
1431.34	50
1432.3	69
1433.27	58
1434.23	56.5
1435.2	84.5
1436.16	65
1437.12	67.5
1438.09	80
1439.05	86
1440.01	84.5
1440.97	73
1441.94	74.5
1442.9	70.5
1443.86	56.5
1444.82	61
1445.78	57
1446.74	51
1447.7	36
1448.67	51.5
1449.63	54
1450.59	36
1451.55	49
1452.5	39.5
1453.46	57
1454.42	46.5
1455.38	36.5
1456.34	58
1457.3	38
1458.26	31
1459.21	42
1460.17	33
1461.13	39
1462.09	30
1463.04	50.5
1464	42.5
1464.96	21
1465.91	34
1466.87	30
1467.82	40
1468.78	10.5
1469.73	33.5
1470.69	22
1471.64	6
1472.6	22
1473.55	15
1474.51	18
1475.46	-3
1476.41	16
1477.37	24
1478.32	5.5
1479.27	6
1480.23	8
1481.18	-1
1482.13	3
1483.08	2.5
1484.03	15
1484.98	3
1485.94	10
1486.89	3.5
1487.84	8
1488.79	-5
1489.74	-11.5
1490.69	17.5
1491.64	9
1492.59	7
1493.54	12.5
1494.48	1
1495.43	-6.5
1496.38	2
1497.33	7.5
1498.28	9
1499.23	0.5
1500.17	-7.5
1501.12	5.5
1502.07	14
1503.01	1
1503.96	2
1504.91	3
1505.85	-3.5
1506.8	-6
1507.74	-3
1508.69	7
1509.64	3
1510.58	-10
1511.52	4
1512.47	19.5
1513.41	-8
1514.36	6
1515.3	8
1516.24	-9
1517.19	-2
1518.13	1
1519.07	-1
1520.01	-15
1520.96	-5.5
1521.9	-1
1522.84	5
1523.78	-2
1524.72	15.5
1525.66	6
1526.6	-20.5
1527.55	3
1528.49	-13
1529.43	3
1530.37	-27
1531.3	-4
1532.24	12.5
1533.18	0
1534.12	1
1535.06	2
1536	-4.5
1536.94	-17.5
1537.88	-8
1538.81	-6
1539.75	-4
1540.69	-24
1541.62	0.5
1542.56	3
1543.5	-6.5
1544.43	5
1545.37	-15.5
1546.3	3.5
1547.24	-15
1548.18	-10
1549.11	1
1550.05	-1
1550.98	-8
1551.91	-10
1552.85	6
1553.78	-10
1554.72	0
1555.65	7.5
1556.58	-8.5
1557.51	-5
1558.45	-17
1559.38	6.5
1560.31	0
1561.24	-14.5
1562.17	-3
1563.11	-2
1564.04	0
1564.97	-16
1565.9	-1
1566.83	-2
1567.76	-13.5
1568.69	-9.5
1569.62	2
1570.55	-1
1571.48	-12
1572.41	-11.5
1573.34	-9
1574.26	-23
1575.19	-13
1576.12	4
1577.05	0
1577.98	-10
1578.9	-12.5
1579.83	13
1580.76	4.5
1581.68	-28.5
1582.61	-8.5
1583.54	1
1584.46	-6
1585.39	-13.5
1586.31	4
1587.24	-13
1588.16	-14
1589.09	-23.5
1590.01	6
1590.94	-22
1591.86	-16
1592.78	-8
1593.71	4.5
1594.63	-1.5
1595.55	-8.5
1596.48	-0.5
1597.4	-19
1598.32	-28
1599.24	-12
1600.17	5
1601.09	-1
1602.01	-22
1602.93	-4
1603.85	7.5
1604.77	-18
1605.69	-18.5
1606.61	0.5
1607.53	-14
1608.45	-13.5
1609.37	-18
1610.29	-2.5
1611.21	-4
1612.13	-12
1613.05	3
1613.96	-8
1614.88	-8
1615.8	-8.5
1616.72	-6.5
1617.63	-16
1618.55	-22.5
1619.47	-25.5
1620.38	-1
1621.3	-5
1622.22	-12
1623.13	-1.5
1624.05	3.5
1624.96	-25
1625.88	4.5
1626.79	4
1627.71	-21
1628.62	-12.5
1629.54	-8.5
1630.45	0
1631.37	-12.5
1632.28	-11.5
1633.19	0.5
1634.1	-4
1635.02	-9
1635.93	7.5
1636.84	6
1637.75	-17
1638.67	-17
1639.58	-11
1640.49	11
1641.4	-16
1642.31	-10
1643.22	12
1644.13	11
1645.04	-4
1645.95	18
1646.86	24
1647.77	3
1648.68	12.5
1649.59	32.5
1650.5	28
1651.41	34.5
1652.31	23
1653.22	34
1654.13	44
1655.04	18
1655.95	49
1656.85	46
1657.76	50
1658.67	37
1659.57	30
1660.48	42.5
1661.38	17.5
1662.29	17.5
1663.2	24.5
1664.1	8
1665.01	14
1665.91	11
1666.81	-8
1667.72	-12
1668.62	-13
1669.53	0
1670.43	5.5
1671.33	-24
1672.24	-16.5
1673.14	1.5
1674.04	-4
1674.94	-16.5
1675.85	-10
1676.75	-4
1677.65	-29
1678.55	-25.5
1679.45	-8.5
1680.35	-11
1681.25	-6
1682.15	-11.5
1683.05	-12
1683.95	-10.5
1684.85	-16
1685.75	-10
1686.65	-5
1687.55	-11
1688.45	-33.5
1689.35	-3
1690.25	-9
1691.15	-23
1692.04	-12
1692.94	-4
1693.84	-13
1694.74	-13
1695.63	-4.5
1696.53	-7
1697.43	-28
1698.32	-19.5
1699.22	-5
1700.11	-15
1701.01	-14
1701.9	-12
1702.8	-9
1703.69	-19
1704.59	-21
1705.48	-16
1706.38	-20
1707.27	-30
1708.16	-16.5
1709.06	-2
1709.95	-15
1710.84	-22
1711.74	-10
1712.63	-6
1713.52	-12
1714.41	-10
1715.3	-2.5
1716.2	-17
1717.09	-28
1717.98	-24
1718.87	-7
1719.76	-14
1720.65	-17
1721.54	-19
1722.43	-11.5
1723.32	-29
1724.21	-28.5
1725.1	-16
1725.99	-14
1726.88	-23
1727.76	-12.5
1728.65	4.5
1729.54	-12
1730.43	-19.5
1731.31	-24
1732.2	-11.5
1733.09	-12
1733.98	-10
1734.86	0
1735.75	-27
1736.63	-27
1737.52	-21.5
1738.41	-5
1739.29	-31
1740.18	-14.5
1741.06	9
1741.95	-2
1742.83	-12
1743.72	-3.5
1744.6	13.5
1745.48	-26
1746.37	-23
1747.25	-6
1748.13	6
1749.02	-9
1749.9	-19
1750.78	-0.5
1751.66	2.5
1752.54	-4.5
1753.43	1.5
1754.31	6
1755.19	-7
1756.07	-13
1756.95	-16.5
1757.83	-31
1758.71	-26
1759.59	-19
1760.47	-7
1761.35	-1.5
1762.23	-12
1763.11	-16.5
1763.99	10
1764.87	-22
1765.74	-30
1766.62	-21
1767.5	-10.5
1768.38	-32
1769.25	-14.5
1770.13	-17.5
1771.01	-8
1771.89	-26
1772.76	-22.5
1773.64	-3
1774.51	-17
1775.39	-36
1776.27	-31
1777.14	-17
1778.02	-20
1778.89	-25.5
1779.76	-3.5
1780.64	-14
1781.51	-18.5
1782.39	-24.5
1783.26	0
1784.13	-27
1785.01	-42
1785.88	-12.5
1786.75	-16
1787.63	-19
1788.5	-27.5
1789.37	-17
1790.24	-33
1791.11	-27
1791.98	-25
1792.86	-13
1793.73	-14.5
1794.6	-27
1795.47	-19
1796.34	-9
1797.21	-31
1798.08	-15.5
1798.95	-15
1799.82	-16
1800.68	-26.5
1801.55	-18.5
1802.42	-7
1803.29	-28
1804.16	-25.5
1805.03	-20.5
1805.89	-18
1806.76	-16
1807.63	-24
1808.49	-12.5
1809.36	-11
1810.23	-31
1811.09	-26
1811.96	-3.5
1812.83	-25
1813.69	-22.5
1814.56	-19
1815.42	-20
1816.29	-23
1817.15	-32
1818.02	-11
1818.88	-6
1819.74	-38
1820.61	-18.5
1821.47	-2.5
1822.33	-19.5
1823.2	-29
1824.06	-15.5
1824.92	-22.5
1825.78	-46
1826.65	-39.5
1827.51	-13
1828.37	-10.5
1829.23	-19.5
1830.09	-11
1830.95	-15
1831.81	-27
1832.67	-34.5
1833.53	-19
1834.39	-23
1835.25	-17.5
1836.11	-21
1836.97	-16
1837.83	-17.5
1838.69	-23.5
1839.55	-13.5
1840.41	-15.5
1841.26	-38
1842.12	-22.5
1842.98	-1
1843.84	-31
1844.69	-15
1845.55	-27
1846.41	-23
1847.26	-29
1848.12	-32
1848.98	-25
1849.83	-10
1850.69	-28
1851.54	-23
1852.4	-16
1853.25	-33
1854.11	-30
1854.96	-22.5
1855.82	-18
1856.67	-18.5
1857.52	-26.5
1858.38	-16.5
1859.23	-23
1860.08	-23.5
1860.93	-22.5
1861.79	-17.5
1862.64	-21.5
1863.49	-30
1864.34	-17
1865.19	-9.5
1866.05	-26
1866.9	-28
1867.75	-9.5
1868.6	3.5
1869.45	-37
1870.3	-22.5
1871.15	-14
1872	-21
1872.85	-21.5
1873.7	-11.5
1874.55	-14
1875.4	-21.5
1876.24	-16
1877.09	-13
1877.94	-11
1878.79	-23
1879.64	-31
1880.48	-20
1881.33	-29
1882.18	-27
1883.02	-33
1883.87	-20
1884.72	-22
1885.56	-26
1886.41	-10.5
1887.25	-12.5
1888.1	-25
1888.94	-8.5
1889.79	-9
1890.63	-19
1891.48	-25.5
1892.32	-10.5
1893.17	-23.5
1894.01	-34
1894.85	-25.5
1895.7	-22.5
1896.54	-9.5
1897.38	-18.5
1898.23	-33
1899.07	-22
1899.91	-18
1900.75	-28
1901.59	-36.5
1902.44	-21
1903.28	-41
1904.12	-31.5
1904.96	-25.5
1905.8	-16
1906.64	-26
1907.48	-14
1908.32	-6
1909.16	-25
1910	-26
1910.84	-16
1911.68	-10
1912.51	-29.5
1913.35	-18
1914.19	-13.5
1915.03	-14.5
1915.87	-31
1916.7	-20.5
1917.54	-19
1918.38	-33
1919.21	-38.5
1920.05	-13.5
1920.89	-16.5
1921.72	-34.5
1922.56	-25
1923.4	-22
1924.23	-13
1925.07	-27.5
1925.9	-27.5
1926.74	-18
1927.57	-29
1928.41	-32
1929.24	-17.5
1930.07	-34
1930.91	-38.5
1931.74	-24.5
1932.57	-6.5
1933.41	-13
1934.24	-31
1935.07	-28.5
1935.9	0.5
1936.74	-31
1937.57	-25
1938.4	-10
1939.23	-23.5
1940.06	-29
1940.89	-30.5
1941.72	-9
1942.55	-21.5
1943.38	-35
1944.21	-19
1945.04	-13.5
1945.87	-29
1946.7	-26.5
1947.53	-15
1948.36	-22
1949.19	-25
1950.02	-35
1950.84	-33
1951.67	-23
1952.5	-33.5
1953.33	-12
1954.15	-28
1954.98	-36
1955.81	-25.5
1956.64	-18.5
1957.46	-52
1958.29	-51
1959.11	-25.5
1959.94	-22
1960.76	-22.5
1961.59	-18.5
1962.41	-18
1963.24	-23
1964.06	-39
1964.89	-25.5
1965.71	-20
1966.53	-21.5
1967.36	-21.5
1968.18	-22
1969	-22
1969.83	-10.5
1970.65	-31
1971.47	-12.5
1972.3	-26
1973.12	-33
1973.94	-29.5
1974.76	-33.5
1975.58	-21
1976.4	-36
1977.22	-27.5
1978.04	-12
1978.86	-22
1979.68	-24.5
1980.5	-25
1981.32	-18.5
1982.14	-36
1982.96	-14
1983.78	-20.5
1984.6	-24
1985.42	-46
1986.24	-28.5
1987.06	-21
1987.87	-27
1988.69	-30
1989.51	-31
1990.32	-41
1991.14	-22
1991.96	-26.5
1992.78	-16.5
1993.59	-26
1994.41	-35
1995.22	-16
1996.04	-15.5
1996.85	-19
1997.67	-31.9333
1998.48	-12.1865
1999.3	-27.3811
2000.11	-31.0755
2000.93	-27.0325
2001.74	-17.5758
2002.56	-40.8257
2003.37	-23.2146
2004.18	-26.193
2004.99	-4.89074
2005.81	-29.7996
2006.62	-22.715
2007.43	-29.4908
2008.25	-31.3943
2009.06	-28.608
2009.87	-15.7008
2010.68	-19.1837
2011.49	-23.4702
2012.3	-32.0599
2013.11	-23.4709
2013.92	-26.3043
2014.73	-23.6103
2015.54	-28.3966
2016.35	-25.6145
2017.16	-30.9819
2017.97	-29.4547
2018.78	-21.4773
2019.59	-18.9689
2020.4	-20.7655
2021.21	-23.1482
2022.02	-26.9977
2022.83	-16.0683
2023.63	-25.5019
2024.44	-26.6862
2025.25	-23.0675
2026.06	-26.2966
2026.86	-29.5175
2027.67	-20.494
2028.48	-22.343
2029.28	-29.3324
2030.09	-20.1888
2030.89	-14.9712
2031.7	-24.6826
2032.5	-22.388
2033.31	-18.0138
2034.11	-24.9484
2034.92	-23.3278
2035.72	-23.6472
2036.53	-11.8842
2037.33	-29.4799
2038.14	-21.6202
2038.94	-18.6048
2039.74	-13.7402
2040.55	-22.7939
2041.35	-30.9626
2042.15	-27.3781
2042.95	-23.281
2043.76	-25.4456
2044.56	-27.929
2045.36	-20.1396
2046.16	-20.8721
2046.96	-28.4688
2047.76	-20.1195
2048.56	-14.1066
2049.37	-26.7058
2050.17	-34.5258
2050.97	-21.4296
2051.77	-10.8808
2052.57	-29.4
2053.36	-35.5112
2054.16	-19.486
2054.96	-13.6989
2055.76	-30.6143
2056.56	-22.1035
2057.36	-8.39555
2058.16	-23.4155
2058.96	-26.7848
2059.75	-30.3936
2060.55	-18.8807
2061.35	-23.3245
2062.14	-37.4513
2062.94	-22.4351
2063.74	-18.605
2064.53	-23.1437
2065.33	-16.1403
2066.13	-15.6713
2066.92	-16.2311
2067.72	-19.4086
2068.51	-31.041
2069.31	-19.5012
2070.1	-12.1822
2070.9	-18.5601
2071.69	-20.6071
2072.49	-17.7626
2073.28	-10.3929
2074.07	-21.0078
2074.87	-12.5181
2075.66	-11.0707
2076.45	-16.9825
2077.25	-20.9476
2078.04	-18.1819
2078.83	-13.2299
2079.62	-14.1947
2080.41	-23.601
2081.21	-19.5569
2081.38	-18
2082.2	-7
2083.03	-16
2083.86	-19.5
2084.68	-9
2085.51	-7
2086.34	-28
2087.16	-20
2087.99	2
2088.81	-25
2089.64	-23.5
2090.46	7
2091.29	-22
2092.11	-19
2092.94	-14.5
2093.76	-22
2094.58	-15
2095.41	-31
2096.23	-16.5
2097.06	-8
2097.88	-9
2098.7	-17.5
2099.53	-7
2100.35	-20
2101.17	-22
2101.99	-15
2102.81	-8
2103.64	-11
2104.46	-25
2105.28	-19.5
2106.1	-5
2106.92	-12
2107.74	-21.5
2108.56	-4
2109.38	-18
2110.2	-17
2111.03	-19.5
2111.84	-5
2112.66	-8
2113.48	-29
2114.3	-19.5
2115.12	-10
2115.94	-19.5
2116.76	-20.5
2117.58	-13
2118.4	-24
2119.22	-15
2120.03	-11
2120.85	-14.5
2121.67	-20.5
2122.49	-18
2123.3	-22
2124.12	8.5
2124.94	-17
2125.76	-32
2126.57	-12.5
2127.39	-9
2128.2	-22
2129.02	-16.5
2129.83	-10
2130.65	-13.5
2131.47	-19.5
2132.28	-23
2133.1	-2
2133.91	-11
2134.73	-20
2135.54	-6
2136.35	-42
2137.17	-31.5
2137.98	-7
2138.79	-9.5
2139.61	-22
2140.42	-13
2141.23	-26
2142.05	-9
2142.86	-26.5
2143.67	-19.5
2144.48	-6.5
2145.3	-7
2146.11	-16
2146.92	-9.5
2147.73	-4
2148.54	-16.5
2149.35	-14
2150.16	-16
2150.97	-11
2151.79	-22
2152.6	-10.5
2153.41	-7
2154.22	-8
2155.02	-21
2155.83	-7.5
2156.64	-10.5
2157.45	-14.5
2158.26	-26.5
2159.07	-15
2159.88	-14
2160.69	-20.5
2161.5	-19
2162.3	-9
2163.11	-28
2163.92	-17
2164.73	-13.5
2165.53	-18
2166.34	-10
2167.15	-26.5
2167.95	-29
2168.76	-25
2169.57	-38.5
2170.37	-28
2171.18	-8
2171.98	-31
2172.79	-39
2173.59	-11.5
2174.4	-4.5
2175.2	-17.5
2176.01	-22.5
2176.81	-21
2177.62	-27
2178.42	-22
2179.22	-18
2180.03	-15
2180.83	-37
2181.63	-28
2182.44	-8.5
2183.24	-27
2184.04	-32
2184.85	-21.5
2185.65	-19.5
2186.45	-16
2187.25	-21
2188.05	-25
2188.86	-10
2189.66	-31
2190.46	-27
2191.26	-19.5
2192.06	-20
2192.86	-33.5
2193.66	-21.5
2194.46	-26.5
2195.26	-22
2196.06	-35
2196.86	-24
2197.66	-9
2198.46	-25
2199.26	-39
2200.06	-22
2200.85	-31
2201.65	-30
2202.45	-30
2203.25	-32
2204.05	-29
2204.84	-30
2205.64	-30.5
2206.44	-21.5
2207.24	-25
2208.03	-27.5
2208.83	-12.5
2209.63	-22
2210.42	-32
2211.22	-33
2212.01	-31
2212.81	-23
2213.61	-31.5
2214.4	-18.5
2215.2	-34
2215.99	-22.5
2216.79	-28
2217.58	-21.5
2218.37	-23
2219.17	-38
2219.96	-29
2220.76	-26.5
2221.55	-33
2222.34	-31
2223.14	-22
2223.93	-33
2224.72	-44.5
2225.51	-29
2226.31	-13.5
2227.1	-13
2227.89	-39.5
2228.68	-32
2229.47	-28
2230.27	-47
2231.06	-27.5
2231.85	-30
2232.64	-16
2233.43	-34
2234.22	-37
2235.01	-36.5
2235.8	-17
2236.59	-26
2237.38	-27
2238.17	-32.5
2238.96	-22
2239.75	-39
2240.54	-33
2241.33	-33
2242.11	-34.5
2242.9	-36.5
2243.69	-20.5
2244.48	-45
2245.27	-31.5
2246.05	-25.5
2246.84	-32
2247.63	-43
2248.41	-28
2249.2	-18
2249.99	-36.5
2250.77	-44
2251.56	-32
2252.35	-18.5
2253.13	-35
2253.92	-39
2254.7	-32
2255.49	-29
2256.27	-48
2257.06	-26
2257.84	-24
2258.63	-39
2259.41	-45
2260.2	-23.5
2260.98	-37
2261.76	-38
2262.55	-34.5
2263.33	-29
2264.11	-48
2264.9	-29
2265.68	-34.5
2266.46	-28
2267.24	-32
2268.03	-45
2268.81	-33
2269.59	-12
2270.37	-42
2271.15	-38
2271.93	-24
2272.71	-43
2273.5	-38
2274.28	-32.5
2275.06	-12.5
2275.84	-26
2276.62	-34
2277.4	-24
2278.18	-27
2278.96	-36.5
2279.73	-38
2280.51	-25
2281.29	-35
2282.07	-34.5
2282.85	-33.5
2283.63	-30.5
2284.41	-40
2285.18	-46
2285.96	-12
2286.74	-14
2287.52	-39
2288.29	-24
2289.07	-36.5
2289.85	-28
2290.62	-35
2291.4	-39
2292.18	-28
2292.95	-33
2293.73	-37
2294.5	-23.5
2295.28	-24
2296.05	-38
2296.83	-36
2297.6	-31.5
2298.38	-32
2299.15	-36
2299.93	-19.5
2300.7	-22
2301.48	-25
2302.25	-41
2303.02	-28
2303.8	-24
2304.57	-32
2305.34	-26.5
2306.11	-28.5
2306.89	-38
2307.66	-30.5
2308.43	-34
2309.2	-23
2309.97	-41
2310.75	-43
2311.52	-18.5
2312.29	-32
2313.06	-38
2313.83	-41.5
2314.6	-10.5
2315.37	-20.5
2316.14	-42
2316.91	-38.5
2317.68	-25
2318.45	-22.5
2319.22	-32
2319.99	-29
2320.76	-26
2321.53	-47
2322.3	-46.5
2323.06	-20
2323.83	-47
2324.6	-41
2325.37	-18.5
2326.14	-32
2326.9	-25.5
2327.67	-39.5
2328.44	-30.5
2329.21	-22
2329.97	-27.5
2330.74	-48
2331.5	-41
2332.27	-55
2333.04	-45
2333.8	-48
2334.57	-40
2335.33	-49
2336.1	-45.5
2336.86	-25.5
2337.63	-45
2338.39	-50
2339.16	-37.5
2339.92	-35
2340.69	-49
2341.45	-31
2342.21	-16.5
2342.98	-31.5
2343.74	-36
2344.5	-43
2345.27	-23.5
2346.03	-17
2346.79	-28
2347.55	-35
2348.31	-12.5
2349.08	-46
2349.84	-42
2350.6	-28
2351.36	-38
2352.12	-41
2352.88	-32
2353.64	-24
2354.41	-29
2355.17	-37
2355.93	-35.5
2356.69	-19
2357.45	-38
2358.21	-39
2358.96	-24.5
2359.72	-34
2360.48	-38
2361.24	-36.5
2362	-19.5
2362.76	-30
2363.52	-40
2364.28	-37.5
2365.03	-17
2365.79	-52
2366.55	-42
2367.31	-23.5
2368.06	-33
2368.82	-36
2369.58	-27
2370.33	-23
2371.09	-25
2371.85	-41
2372.6	-24.5
2373.36	-31
2374.11	-38
2374.87	-36.5
2375.62	-21.5
2376.38	-21
2377.13	-35.5
2377.89	-14
2378.64	-24
2379.4	-45
2380.15	-43.5
2380.9	-33
2381.66	-8
2382.41	-36
2383.16	-37.5
2383.92	-18
2384.67	-36
2385.42	-52
2386.18	-31.5
2386.93	-19
2387.68	-36
2388.43	-35.5
2389.18	-21.5
2389.94	-23
2390.69	-46
2391.44	-42
2392.19	-19
2392.94	-36
2393.69	-30
2394.44	-28
2395.19	-32
2395.94	-54
2396.69	-37.5
2397.44	-39.5
2398.19	-25.5
2398.94	-42
2399.69	-31.5
2400.44	-21.5
2401.19	-37
2401.93	-40
2402.68	-25.5
2403.43	-8
2404.18	-29
2404.93	-23
2405.67	-27.5
2406.42	-38
2407.17	-37
2407.92	-39.5
2408.66	-25
2409.41	-25
2410.16	-49
2410.9	-27
2411.65	-27
2412.39	-27.5
2413.14	-32
2413.89	-18.5
2414.63	-27.5
2415.38	-52
2416.12	-26
2416.86	-20
2417.61	-42
2418.35	-42
2419.1	-29.5
2419.84	-19
2420.59	-36
2421.33	-36.5
2422.07	-26.5
2422.82	-38
2423.56	-49
2424.3	-40
2425.04	-18.5
2425.79	-53
2426.53	-37
2427.27	-37.5
2428.01	-35
2428.75	-31.5
2429.5	-28
2430.24	-34.5
2430.98	-26
2431.72	-38
2432.46	-38.5
2433.2	-21
2433.94	-39
2434.68	-35
2435.42	-40.5
2436.16	-11.5
2436.9	-33
2437.64	-33
2438.38	-35.5
2439.12	-31
2439.86	-36
2440.59	-30.5
2441.33	-21
2442.07	-37
2442.81	-46
2443.55	-24
2444.28	-31
2445.02	-29
2445.76	-32.5
2446.5	-24.5
2447.23	-44
2447.97	-53.5
2448.71	-24
2449.44	-18.5
2450.18	-44
2450.91	-39.5
2451.65	-23
2452.39	-23
2453.12	-45
2453.86	-29.5
2454.59	-23
2455.33	-37
2456.06	-40
2456.79	-36
2457.53	-27
2458.26	-35
2459	-34
2459.73	-36.5
2460.46	-28.5
2461.2	-36.5
2461.93	-27.5
2462.66	-21
2463.4	-46
2464.13	-38.5
2464.86	-28.5
2465.59	-23
2466.32	-55
2467.06	-35.5
2467.79	-38
2468.52	-30
2469.25	-32
2469.98	-37.5
2470.71	-21.5
2471.44	-33
2472.17	-59
2472.9	-22.5
2473.63	-27
2474.36	-43
2475.09	-37
2475.82	-26
2476.55	-29
2477.28	-44
2478.01	-35.5
2478.74	-27
2479.47	-27
2480.19	-38
2480.92	-28
2481.65	-24
2482.38	-38
2483.11	-28
2483.83	-26.5
2484.56	-36
2485.29	-40
2486.01	-29
2486.74	-30
2487.47	-44
2488.19	-39
2488.92	-32
2489.65	-27
2490.37	-26
2491.1	-44
2491.82	-26
2492.55	-23
2493.27	-29
2494	-36.5
2494.72	-19
2495.45	-44
2496.17	-36
2496.89	-32
2497.62	-42
2498.34	-48
2499.06	-35
2499.79	-27.5
2500.51	-31
2501.23	-44.5
2501.96	-25.5
2502.68	-32.5
2503.4	-47
2504.12	-44
2504.84	-21
2505.57	-42
2506.29	-31.5
2507.01	-21
2507.73	-26.5
2508.45	-35
2509.17	-39
2509.89	-17
2510.61	-23.5
2511.33	-39
2512.05	-46.5
2512.77	-21
2513.49	-30
2514.21	-44
2514.93	-36
2515.65	-26.5
2516.37	-38
2517.09	-31
2517.81	-28.5
2518.52	-21
2519.24	-35
2519.96	-33.5
2520.68	-38
2521.4	-36
2522.11	-40
2522.83	-26.5
2523.55	-45
2524.26	-43
2524.98	-30.5
2525.7	-33
2526.41	-16.5
2527.13	-41
2527.84	-36
2528.56	-17.5
2529.28	-35
2529.99	-35.5
2530.71	-32.5
2531.42	-35.5
2532.14	-36
2532.85	-30
2533.56	-17
2534.28	-28.5
2534.99	-30.5
2535.71	-41
2536.42	-28.5
2537.13	-26
2537.85	-37
2538.56	-35.5
2539.27	-32
2539.98	-39.5
2540.7	-30
2541.41	-28
2542.12	-32
2542.83	-48.5
2543.54	-40.5
2544.26	-26.5
2544.97	-31
2545.68	-34
2546.39	-19
2547.1	-44
2547.81	-35.5
2548.52	-35
2549.23	-25.5
2549.94	-23.5
2550.65	-43.5
2551.36	-33
2552.07	-25
2552.78	-34
2553.49	-49
2554.2	-17
2554.91	-31
2555.61	-39
2556.32	-27.5
2557.03	-30
2557.74	-29
2558.45	-41.5
2559.15	-25.5
2559.86	-27
2560.57	-32
2561.27	-37.5
2561.98	-26
2562.69	-21.5
2563.39	-44.5
2564.1	-23
2564.81	-21
2565.51	-23
2566.22	-43
2566.92	-27
2567.63	-29
2568.33	-53
2569.04	-43
2569.74	-29
2570.45	-36
2571.15	-55
2571.86	-37.5
2572.56	-21
2573.26	-33
2573.97	-36
2574.67	-34.5
2575.37	-17
2576.08	-39.5
2576.78	-44
2577.48	-25
2578.19	-35
2578.89	-44
2579.59	-17
2580.29	-12.5
2580.99	-40.5
2581.69	-43
2582.4	-26.5
2583.1	-27
2583.8	-45
2584.5	-29.5
2585.2	-19.5
2585.9	-32
2586.6	-32
2587.3	-25.5
2588	-28
2588.7	-26
2589.4	-44
2590.1	-28
2590.8	-37
2591.5	-22
2592.19	-44.5
2592.89	-12
2593.59	-33
2594.29	-36
2594.99	-21
2595.68	-26.5
2596.38	-37.5
2597.08	-38
2597.78	-26.5
2598.47	-28.5
2599.17	-29.5
2599.87	-31
2600.56	-31
2601.26	-52
2601.96	-49
2602.65	-25
2603.35	-18
2604.04	-51
2604.74	-39.5
2605.43	-23
2606.13	-35
2606.82	-30
2607.52	-38.5
2608.21	-24
2608.91	-34
2609.6	-38
2610.29	-21
2610.99	-19.5
2611.68	-34.5
2612.37	-41
2613.07	-25
2613.76	-31
2614.45	-41
2615.15	-33.5
2615.84	-8.5
2616.53	-31
2617.22	-50.5
2617.91	-23
2618.6	-28
2619.3	-38.5
2619.99	-52
2620.68	-23
2621.37	-40
2622.06	-32
2622.75	-57
2623.44	-24
2624.13	-45.5
2624.82	-44
2625.51	-20
2626.2	-25
2626.89	-41
2627.58	-40
2628.27	-28.5
2628.96	-44
2629.64	-27
2630.33	-34.5
2631.02	-22
2631.71	-24.5
2632.4	-45.5
2633.08	-26
2633.77	-21.5
2634.46	-45
2635.15	-43.5
2635.83	-22.5
2636.52	-23
2637.21	-50
2637.89	-27
2638.58	-31
2639.26	-43
2639.95	-40
2640.64	-19
2641.32	-34
2642.01	-34
2642.69	-33
2643.38	-18
2644.06	-37.5
2644.75	-45
2645.43	-33
2646.11	-20
2646.8	-53
2647.48	-32
2648.16	-18.5
2648.85	-36
2649.53	-40.5
2650.21	-29
2650.9	-37
2651.58	-47
2652.26	-42
2652.94	-30
2653.63	-25
2654.31	-37
2654.99	-38.5
2655.67	-14
2656.35	-28
2657.03	-43.5
2657.71	-35
2658.39	-25
2659.08	-38.5
2659.76	-45
2660.44	-12
2661.12	-25
2661.8	-39.5
2662.48	-29.5
2663.15	-22
2663.83	-27.5
2664.51	-42.5
2665.19	-45
2665.87	-28
2666.55	-42
2667.23	-45
2667.91	-18.5
2668.58	-39
2669.26	-44
2669.94	-34
2670.62	-22.5
2671.29	-42
2671.97	-24.5
2672.65	-19
2673.32	-36
2674	-33
2674.68	-39
2675.35	-20.5
2676.03	-42
2676.7	-32
2677.38	-40.5
2678.06	-24
2678.73	-36
2679.41	-37
2680.08	-31
2680.75	-17
2681.43	-40
2682.1	-31
2682.78	-28.5
2683.45	-27
2684.12	-41
2684.8	-33.5
2685.47	-28
2686.14	-39
2686.82	-33
2687.49	-40
2688.16	-27
2688.83	-38
2689.51	-35
2690.18	-23
2690.85	-30
2691.52	-32.5
2692.19	-29
2692.86	-23
2693.54	-35.3996
2694.21	-36.6356
2694.88	-22.9481
2695.55	-25.2468
2696.22	-40.1711
2696.89	-39.295
2697.56	-19.9414
2698.23	-39.1053
2698.9	-31.6503
2699.57	-32.0441
2700.24	-18.3412
2700.91	-45.4058
2701.57	-35.7413
2702.24	-34.3422
2702.91	-23.7907
2703.58	-43.0618
2704.25	-33.375
2704.92	-25.6535
2705.58	-36.5449
2706.25	-41.2709
2706.92	-34.4002
2707.58	-17.2517
2708.25	-27.6397
2708.92	-33.6353
2709.59	-16.9909
2710.25	-41.4204
2710.92	-36.5127
2711.58	-25.7459
2712.25	-26.3059
2712.92	-22.3712
2713.58	-34.8743
2714.25	-23.1449
2714.91	-20.5081
2715.58	-32.7481
2716.24	-34.435
2716.91	-21.2223
2717.57	-26.5868
2718.23	-27.724
2718.9	-23.0391
2719.56	-22.266
2720.23	-28.7444
2720.89	-29.2132
2721.55	-20.983
2722.22	-17.2547
2722.88	-38.9969
2723.54	-45.5375
2724.2	-19.91
2724.87	-14.5431
2725.53	-42.5052
2726.19	-25.821
2726.85	-29.6149
2727.51	-34.458
2728.18	-27.3622
2728.84	-25.8461
2729.5	-21.7821
2730.16	-28.7245
2730.82	-32.1286
2731.48	-26.1853
2732.14	-25.0919
2732.8	-27.1394
2733.46	-27.5594
2734.12	-29.2314
2734.78	-27.496
2735.44	-25.7929
2736.1	-29.6697
2736.76	-23.0328
2737.42	-24.3604
2738.07	-26.4489
2738.73	-30.4294
2739.39	-32.5495
2740.05	-27.3526
2740.71	-23.6293
2741.37	-25.7283
2742.02	-24.1339
2742.68	-29.4819
2743.34	-23.823
2743.99	-16.3235
2744.65	-18.6658
2745.31	-21.677
2745.96	-26.9182
2746.62	-27.1192
2747.28	-22.0729
2747.93	-16.8855
2748.59	-21.4465
2749.24	-30.6653
2749.9	-17.487
2750.55	-24.3095
2751.21	-38.7315
2751.86	-19.6411
2752.52	-14.5518
2753.17	-19.8808
2753.83	-35.4377
2754.48	-18.1803
2755.14	-11.2555
2755.79	-18.7421
2756.44	-24.9192
2757.1	-18.2654
2757.75	-12.9221
2758.4	-21.6896
2759.05	-22.6739
2759.71	-18.9369
2760.36	-10.806
2761.01	-21.3292
2761.66	-34.1248
2762.32	-14.8704
2762.97	-11.6159
2763.63	-13
2764.32	-27
2765.01	0
2765.69	-18
2766.38	-21.5
2767.07	-11.5
2767.75	0
2768.44	-30
2769.12	-26
2769.81	-6
2770.49	7
2771.18	-28.5
2771.87	-21
2772.55	-13.5
2773.24	-16.5
2773.92	-18.5
2774.6	-7.5
2775.29	-17
2775.97	-17.5
2776.66	-23.5
2777.34	-12
2778.03	-18
2778.71	-21.5
2779.39	-25
2780.08	-7
2780.76	-42
2781.44	-18.5
2782.12	-8.5
2782.81	0.5
2783.49	-24.5
2784.17	-39
2784.85	-3
2785.54	-13.5
2786.22	-32
2786.9	-10
2787.58	-11.5
2788.26	-24.5
2788.94	-24
2789.63	-20
2790.31	-14.5
2790.99	-22
2791.67	-23.5
2792.35	-16
2793.03	-14.5
2793.71	-25
2794.39	-16
2795.07	-24
2795.75	-22.5
2796.43	-22
2797.11	-6
2797.79	-13.5
2798.46	-27
2799.14	-16
2799.82	-5
2800.5	-12.5
2801.18	-24
2801.86	-28
2802.54	-13.5
2803.21	-25
2803.89	-21
2804.57	-11
2805.25	-6.5
2805.92	-30
2806.6	-24.5
2807.28	-4
2807.95	-18
2808.63	-23.5
2809.31	-23.5
2809.98	-17
2810.66	-24
2811.34	-23.5
2812.01	-15
2812.69	-12
2813.36	-26.5
2814.04	-14
2814.71	-4.5
2815.39	-24
2816.06	-29.5
2816.74	-28
2817.41	-20
2818.09	-27.5
2818.76	-26
2819.44	-14.5
2820.11	-16.5
2820.78	-32
2821.46	-8.5
2822.13	-8.5
2822.8	-21.5
2823.48	-26
2824.15	-12
2824.82	-13
2825.49	-33
2826.17	-15
2826.84	-8.5
2827.51	-11
2828.18	-25
2828.86	-26
2829.53	-15.5
2830.2	-4
2830.87	-32
2831.54	-21
2832.21	-19.5
2832.88	-27
2833.55	-31
2834.22	-7
2834.9	-17.5
2835.56	-35
2836.23	-18
2836.91	-10.5
2837.57	-30
2838.24	-36
2838.91	-13
2839.58	-17.5
2840.25	-32.5
2840.92	-15.5
2841.59	-6
2842.26	-25.5
2842.93	-23
2843.6	-11.5
2844.26	-9
2844.93	-25
2845.6	-14
2846.27	-5
2846.93	-10.5
2847.6	-18.5
2848.27	-15
2848.94	-13.5
2849.6	-15.5
2850.27	-17.5
2850.94	-13.5
2851.6	-4
2852.27	-18
2852.94	-15.5
2853.6	-10.5
2854.27	-10.5
2854.93	-26
2855.6	-19
2856.26	9
2856.93	-16.5
2857.59	-16.5
2858.26	-17
2858.92	-8.5
2859.59	-20
2860.25	-19
2860.92	-14
2861.58	-10.5
2862.24	-32
2862.91	-5
2863.57	3
2864.23	-7
2864.9	-27.5
2865.56	-20
2866.22	-12.5
2866.89	-35.5
2867.55	-28
2868.21	-12.5
2868.87	-18.5
2869.54	-28.5
2870.2	-2
2870.86	-6
2871.52	-25.5
2872.18	-26
2872.84	-23
2873.51	-11
2874.17	-20.5
2874.83	-6
2875.49	-8
2876.15	-26.5
2876.81	-18.5
2877.47	-27
2878.13	-11.5
2878.79	-26.5
2879.45	-27.5
2880.11	-17
2880.77	-20
2881.43	-24
2882.09	-51
2882.75	-21
2883.4	-32
2884.06	-33
2884.72	-10.5
2885.38	-8
2886.04	-34
2886.7	-33
2887.35	-15
2888.01	-17.5
2888.67	-28
2889.33	-13
2889.98	-9
2890.64	-23
2891.3	-25
2891.95	-25
2892.61	-12
2893.27	-16
2893.92	-37
2894.58	-15
2895.23	-21
2895.89	-12.5
2896.55	-35
2897.2	-11
2897.86	-31
2898.51	-40
2899.17	-24
2899.82	-18.5
2900.48	-30
2901.13	-33
2901.79	-30
2902.44	-19.5
2903.09	-32.5
2903.75	-39
2904.4	-19.5
2905.05	-31
2905.71	-47
2906.36	-8
2907.01	-12.5
2907.67	-18
2908.32	-25.5
2908.97	-28
2909.63	-22
2910.28	-32.5
2910.93	-30
2911.58	-18
2912.23	-32.5
2912.88	-34.5
2913.54	-16.5
2914.19	-5
2914.84	-32
2915.49	-30
2916.14	-13
2916.79	-17.5
2917.44	-31.5
2918.09	-17.5
2918.74	-12
2919.39	-26.5
2920.04	-34
2920.69	-18
2921.34	-16
2921.99	-25
2922.64	-24
2923.29	-13
2923.94	-40.5
2924.59	-23
2925.23	-31
2925.88	-12
2926.53	-30
2927.18	-41
2927.83	-9
2928.48	-23
2929.12	-28
2929.77	-24
2930.42	-25.5
2931.07	-24
2931.71	-31.5
2932.36	-28
2933.01	-13.5
2933.65	-36
2934.3	-31
2934.95	-7
2935.59	-41.5
2936.24	-38
2936.88	-34
2937.53	-22
2938.17	-30
2938.82	-38
2939.46	-23
2940.11	-10
2940.75	-29
2941.4	-25.5
2942.04	-13.5
2942.69	-31
2943.33	-41.5
2943.98	-19
2944.62	-20
2945.26	-28
2945.91	-43
2946.55	-20
2947.19	-24
2947.84	-35
2948.48	-34.5
2949.12	-12.5
2949.76	-29.5
2950.41	-48
2951.05	-19
2951.69	-29.5
2952.33	-21
2952.98	-32.5
2953.62	-16
2954.26	-34
2954.9	-38
2955.54	-37
2956.18	-13
2956.82	-24
2957.46	-32
2958.1	-25.5
2958.74	-35
2959.38	-33
2960.02	-25
2960.66	-20.5
2961.3	-26
2961.94	-42
2962.58	-27
2963.22	-17.5
2963.86	-25
2964.5	-31
2965.14	-31
2965.78	-36
2966.42	-36.5
2967.05	-27
2967.69	-12.5
2968.33	-51
2968.97	-38
2969.61	-28
2970.24	-17
2970.88	-34
2971.52	-21
2972.15	-37
2972.79	-34.5
2973.43	-46
2974.06	-26
2974.7	-25
2975.34	-34.5
2975.97	-45.5
2976.61	-23
2977.24	-15.5
2977.88	-28.5
2978.52	-37
2979.15	-29
2979.79	-42.5
2980.42	-39
2981.06	-35
2981.69	-27.5
2982.32	-30.5
2982.96	-52
2983.59	-24.5
2984.23	-22.5
2984.86	-43
2985.49	-24
2986.13	-29.5
2986.76	-35.5
2987.39	-31
2988.03	-33
2988.66	-22
2989.29	-42
2989.93	-32.5
2990.56	-29.5
2991.19	-27
2991.82	-37
2992.45	-40.5
2993.09	-19.5
2993.72	-36
2994.35	-38
2994.98	-37
2995.61	-32
2996.24	-27.5
2996.87	-48
2997.5	-18.5
2998.14	-27.5
2998.77	-40.5
2999.4	-23
3000.03	-36
3000.66	-43.5
3001.29	-35
3001.91	-36
3002.54	-24
3003.17	-34.5
3003.8	-36
3004.43	-18
3005.06	-23.5
3005.69	-49
3006.32	-26.5
3006.95	-23
3007.57	-31
3008.2	-27.5
3008.83	-24.5
3009.46	-18
3010.08	-26
3010.71	-32
3011.34	-28
3011.97	-15.5
3012.59	-33
3013.22	-39
3013.85	-30.5
3014.47	-35.5
3015.1	-40
3015.72	-37
3016.35	-19.5
3016.98	-44
3017.6	-43
3018.23	-20
3018.85	-23.5
3019.48	-32
3020.1	-28.5
3020.73	-24.5
3021.35	-55
3021.98	-34
3022.6	-27
3023.23	-28
3023.85	-36
3024.47	-46
3025.1	-31
3025.72	-24.5
3026.34	-31.5
3026.97	-30
3027.59	-32
3028.21	-40.5
3028.84	-29.5
3029.46	-28
3030.08	-21.5
3030.7	-42.5
3031.32	-31.5
3031.95	-27.5
3032.57	-32
3033.19	-39
3033.81	-31.5
3034.43	-9
3035.05	-44
3035.68	-47
3036.3	-36
3036.92	-29
3037.54	-41.5
3038.16	-48
3038.78	-17
3039.4	-23
3040.02	-51.5
3040.64	-24
3041.26	-21.5
3041.88	-46.5
3042.5	-35
3043.12	-30
3043.73	-31
3044.35	-45
3044.97	-34
3045.59	-28
3046.21	-24.5
3046.83	-49
3047.44	-31
3048.06	-28
3048.68	-41.5
3049.3	-32
3049.92	-37
3050.53	-31.5
3051.15	-35.5
3051.77	-33.5
3052.38	-30
3053	-41.5
3053.62	-34
3054.23	-26
3054.85	-30
3055.46	-45
3056.08	-37
3056.7	-31
3057.31	-40
3057.93	-39.5
3058.54	-24
3059.16	-28.5
3059.77	-25.5
3060.39	-37
3061	-22
3061.61	-25
3062.23	-52.5
3062.84	-33
3063.46	-17
3064.07	-32.5
3064.68	-51
3065.3	-29.5
3065.91	-36
3066.52	-27.5
3067.14	-48
3067.75	-24
3068.36	-36
3068.98	-48
3069.59	-35
3070.2	-24
3070.81	-39
3071.42	-42
3072.04	-35
3072.65	-24.5
3073.26	-46
3073.87	-50
3074.48	-21.5
3075.09	-30
3075.7	-49.5
3076.31	-29
3076.92	-23
3077.53	-32
3078.14	-44
3078.75	-25.5
3079.36	-16.5
3079.97	-38.5
3080.58	-38
3081.19	-22
3081.8	-41.5
3082.41	-43.5
3083.02	-31
3083.63	-26
3084.24	-39
3084.84	-49
3085.45	-26
3086.06	-32.5
3086.67	-40.5
3087.28	-30.5
3087.88	-30
3088.49	-30
3089.1	-54
3089.71	-28
3090.31	-19
3090.92	-31.5
3091.53	-41
3092.13	-37
3092.74	-27
3093.34	-33.5
3093.95	-35.5
3094.56	-46
3095.16	-39
3095.77	-44
3096.37	-28.5
3096.98	-20
3097.58	-37
3098.19	-44.5
3098.79	-31
3099.4	-25
3100	-36.5
3100.61	-33.5
3101.21	-22.5
3101.81	-38.5
3102.42	-34.5
3103.02	-38
3103.63	-30
3104.23	-32.5
3104.83	-34.5
3105.43	-29
3106.04	-28.5
3106.64	-36
3107.24	-37.5
3107.85	-18.5
3108.45	-38.5
3109.05	-49
3109.65	-22.5
3110.25	-23.5
3110.86	-32
3111.46	-30.5
3112.06	-25
3112.66	-32
3113.26	-47
3113.86	-46
3114.46	-30.5
3115.06	-33
3115.66	-43
3116.26	-30
3116.86	-26.5
3117.46	-34
3118.06	-65
3118.66	-34.5
3119.26	-39
3119.86	-47
3120.46	-27
3121.06	-24.5
3121.66	-32.5
3122.26	-48
3122.85	-14.5
3123.45	-26
3124.05	-44.5
3124.65	-28.5
3125.25	-25
3125.84	-24.5
3126.44	-32
3127.04	-34
3127.64	-21
3128.23	-36.5
3128.83	-46.5
3129.43	-18.5
3130.02	-26.5
3130.62	-40
3131.22	-46
3131.81	-31.5
3132.41	-38.5
3133	-39.5
3133.6	-29
3134.19	-26
3134.79	-36.5
3135.39	-48
3135.98	-24
3136.58	-32
3137.17	-45
3137.76	-32
3138.36	-16
3138.95	-40
3139.55	-31
3140.14	-29
3140.73	-31
3141.33	-52
3141.92	-41
3142.51	-30
3143.11	-30
3143.7	-35.5
3144.29	-41
3144.89	-20
3145.48	-31.5
3146.07	-37
3146.66	-33
3147.26	-27
3147.85	-43
3148.44	-44
3149.03	-30
3149.62	-20
3150.21	-40
3150.8	-31
3151.39	-19.5
3151.99	-37
3152.58	-22
3153.17	-25
3153.76	-32
3154.35	-35
3154.94	-57
3155.53	-14
3156.12	-30.5
3156.71	-58
3157.29	-30
3157.88	-25
3158.47	-37.5
3159.06	-42.5
3159.65	-18
3160.24	-24
3160.83	-45
3161.42	-52
3162	-20
3162.59	-26.5
3163.18	-53
3163.77	-40.5
3164.35	-38
3164.94	-42.5
3165.53	-35
3166.12	-25.5
3166.7	-28
3167.29	-39.5
3167.88	-43.5
3168.46	-25
3169.05	-40
3169.64	-50
3170.22	-36
3170.81	-25
3171.39	-37
3171.98	-39
3172.56	-31
3173.15	-30
3173.73	-36
3174.32	-40
3174.9	-19.5
3175.49	-20
3176.07	-42
3176.65	-41
3177.24	-25.5
3177.82	-40
3178.41	-30
3178.99	-32
3179.57	-15.5
3180.16	-37
3180.74	-42
3181.32	-12
3181.91	-40
3182.49	-31
3183.07	-39
3183.65	-36
3184.23	-44
3184.82	-25
3185.4	-17
3185.98	-20.5
3186.56	-49
3187.14	-42
3187.72	-24.5
3188.3	-35
3188.89	-37
3189.47	-22
3190.05	-27.5
3190.63	-37.5
3191.21	-30
3191.79	-29.5
3192.37	-38
3192.95	-31
3193.53	-29
3194.11	-20.5
3194.69	-37
3195.26	-40
3195.84	-27
3196.42	-26
3197	-42
3197.58	-32
3198.16	-22
3198.74	-40.5
3199.31	-36
3199.89	-31
