100.582	458
101.867	463
103.152	448
104.437	439.5
105.721	451
107.004	435
108.287	406.5
109.571	416
110.853	390
112.136	391
113.418	385.5
114.7	391
115.981	393
117.262	372.5
118.543	357.5
119.823	369.5
121.103	383
122.383	348
123.663	359.5
124.942	352.5
126.221	355.5
127.499	350
128.777	324
130.056	353.5
131.333	331
132.61	303
133.887	360.5
135.163	350
136.439	310.5
137.715	331.5
138.992	323
140.267	289
141.541	307.5
142.816	301
144.09	309
145.364	300.5
146.637	293.5
147.911	300.5
149.184	301.5
150.457	268
151.729	270
153.001	269
154.273	249.5
155.544	254.5
156.815	258.5
158.086	257
159.356	237
160.626	219.5
161.896	249
163.165	229
164.434	231
165.703	240
166.971	222
168.24	198
169.507	223
170.774	221
172.042	236
173.309	208
174.575	196
175.841	222.5
177.107	221
178.373	194.5
179.637	188.5
180.902	185
182.167	184
183.431	194.5
184.695	204
185.958	208
187.222	182
188.485	183
189.747	186
191.009	174
192.272	180.5
193.534	196
194.795	191
196.055	167.5
197.316	172
198.577	187
199.837	204.5
201.096	153
202.356	186.5
203.615	183
204.873	175.5
206.132	171.5
207.39	183
208.648	194
209.905	176
211.162	166
212.419	188
213.675	180
214.932	153
216.187	174
217.443	185
218.697	175
219.953	166.5
221.207	169
222.462	158
223.715	157.5
224.969	163
226.222	160
227.475	159
228.727	149
229.98	149.5
231.232	163
232.483	145.5
233.734	145.5
234.986	139
236.236	146
237.486	139.5
238.737	154.5
239.986	175.5
241.235	172.5
242.484	135
243.733	165
244.981	183
246.229	203.5
247.477	222.5
248.725	251
249.971	254
251.219	240
252.465	225
253.711	201
254.957	184
256.203	152
257.448	148.5
258.693	176.5
259.937	166.5
261.181	167
262.425	165
263.669	152
264.912	143
266.155	151.5
267.398	154
268.64	123
269.881	140
271.123	133
272.364	145.5
273.605	130.5
274.846	123.5
276.086	141
277.326	120
278.566	117.5
279.806	145
281.045	141.5
282.283	138
283.522	136
284.76	119
285.998	136
287.235	105
288.473	118.5
289.71	120
290.946	122.5
292.182	111
293.418	107.5
294.654	119.5
295.888	99
297.123	103
298.358	102
299.592	123
300.826	92
302.06	127.5
303.293	110
304.526	102
305.759	101
306.991	108
308.223	115
309.455	99.5
310.687	103
311.917	110
313.148	105
314.379	95
315.609	103.5
316.839	105
318.068	82
319.297	102
320.526	103
321.754	102.5
322.982	94.5
324.21	100.5
325.438	86
326.665	111
327.892	93
329.118	96.5
330.345	98
331.571	89
332.797	89
334.022	102.5
335.247	101
336.471	98.5
337.696	94
338.92	99.5
340.144	92
341.367	92.5
342.591	88
343.813	100.5
345.036	95
346.257	93.5
347.48	87
348.701	99
349.922	89.5
351.143	86
352.363	91.5
353.583	91
354.803	72
356.023	87.5
357.243	81
358.462	83
359.68	88
360.899	81.5
362.117	91
363.334	84
364.551	86.5
365.769	104
366.986	89
368.202	72.5
369.418	70.5
370.633	76
371.849	70
373.065	82
374.279	81
375.494	59
376.708	88
377.921	60
379.136	75
380.349	69
381.562	66.5
382.774	83
383.987	72.5
385.198	82
386.41	88.5
387.621	93
388.832	71
390.043	60
391.253	72
392.463	78.5
393.674	78
394.883	79
396.092	62
397.301	73
398.509	70
399.717	61
400.925	80
402.133	74
403.34	60.5
404.547	67.5
405.753	75
406.96	69
408.165	68.5
409.371	77
410.576	73
411.781	63
412.986	50.5
414.191	63.5
415.394	65
416.598	58.5
417.802	72
419.005	78
420.208	70
421.41	58
422.613	77
423.815	67.5
425.016	55.5
426.217	69.5
427.418	72.5
428.619	51
429.818	64.5
431.019	67
432.218	46
433.418	65
434.617	62.5
435.815	36
437.014	74
438.212	58.5
439.41	52.5
440.607	59
441.805	69
443.001	60
444.198	62
445.394	64.5
446.59	63.5
447.785	51
448.98	61.5
450.175	54
451.37	47
452.564	68
453.758	63
454.952	68
456.145	44.5
457.339	74.5
458.531	46
459.724	49
460.916	52.5
462.107	66
463.299	47.5
464.49	47
465.681	55.5
466.871	52
468.062	58.5
469.252	56.5
470.441	58
471.631	48
472.819	54.5
474.008	48
475.196	52
476.385	53.5
477.572	54.5
478.76	58
479.946	64.5
481.133	41.5
482.32	41.5
483.506	50
484.692	53
485.877	47.5
487.063	51
488.247	50.5
489.432	54.5
490.616	30
491.8	55
492.984	51.5
494.167	55
495.35	47
496.533	46.5
497.715	54
498.897	44
500.079	47
501.26	42.5
502.441	38
503.622	42.5
504.803	43
505.983	69
507.163	33
508.342	32.5
509.522	44.5
510.701	51.5
511.88	20.5
513.058	45.5
514.236	41
515.413	31
516.591	42.5
517.768	41
518.945	49
520.121	36
521.297	31.5
522.473	56.5
523.648	28
524.823	38
525.998	39
527.173	50
528.348	23
529.522	34
530.694	52.5
531.868	43
533.041	38.5
534.214	32.5
535.386	41
536.558	18
537.731	46.5
538.902	32
540.073	33
541.244	38.5
542.414	37
543.585	33
544.754	52.5
545.924	16.5
547.094	15.5
548.262	45.5
549.431	43
550.6	30
551.767	12.5
552.935	37
554.103	36.5
555.27	28.5
556.436	27
557.603	32
558.769	32.5
559.935	12
561.1	42
562.266	32
563.431	27.5
564.595	34.5
565.759	37.5
566.924	15
568.087	31
569.25	33.5
570.414	24
571.576	34.5
572.739	21.5
573.901	41.5
575.062	23.5
576.224	20
577.385	33
578.546	42
579.707	27.5
580.867	38
582.028	41
583.187	41
584.347	30
585.505	20
586.664	33
587.822	19
588.98	42
590.138	32
591.296	46.5
592.453	23.5
593.61	33
594.767	42
595.922	48
597.079	22
598.234	37
599.39	45
600.544	39
601.699	32
602.854	46.5
604.008	26.5
605.161	28.5
606.315	34
607.468	30
608.621	23
609.774	17.5
610.926	20.5
612.078	26.5
613.229	30
614.381	19
615.532	28.5
616.682	36
617.833	7
618.983	30
620.133	25
621.282	30.5
622.431	20.5
623.58	27.5
624.729	19
625.877	24
627.025	12.5
628.172	29
629.32	35
630.467	5
631.614	22.5
632.76	32
633.906	26
635.052	15.5
636.197	28.5
637.343	26
638.488	14
639.632	13.5
640.776	15.5
641.92	5
643.064	16
644.207	24
645.35	31.5
646.493	11
647.635	17.5
648.777	7
649.919	23
651.06	-7
652.202	9
653.342	30
654.483	20
655.624	-5
656.764	24.5
657.903	30
659.043	8
660.181	22
661.32	18
662.459	22
663.596	7.5
664.735	8
665.872	18.5
667.009	20
668.146	13.5
669.282	37.5
670.419	19.5
671.555	11
672.69	18
673.826	4.5
674.96	15
676.096	-4
677.23	9.5
678.364	23
679.498	14
680.631	5
681.765	14.5
682.897	3
684.03	20
685.163	17.5
686.294	9
687.426	-3
688.557	15
689.689	9
690.819	27.5
691.949	37.5
693.079	2
694.21	29.5
695.339	19
696.468	27
697.597	15.5
698.725	29
699.854	15
700.982	13
702.11	15.5
703.237	22.5
704.364	13
705.491	29
706.617	25.5
707.744	22
708.87	26
709.995	26
711.12	32
712.245	34
713.37	13
714.495	31
715.618	35
716.742	32.5
717.865	34.5
718.989	31.5
720.112	25
721.234	28
722.356	36.5
723.478	43
724.6	21
725.721	20
726.842	26.5
727.962	21
729.083	17.5
730.203	23.5
731.323	28.5
732.442	28
733.562	28
734.681	26.5
735.799	34
736.917	23
738.036	22
739.153	32.5
740.27	24.5
741.387	7
742.505	11
743.62	26
744.736	23
745.853	8
746.968	19
748.083	26.5
749.199	18
750.313	1
751.427	24.5
752.541	28.5
753.655	20
754.768	20.5
755.882	22
756.994	20
758.107	19.5
759.219	9.5
760.331	6
761.443	26.5
762.554	10
763.665	24.5
764.776	30.5
765.885	14
766.996	14
768.106	25
769.215	31
770.324	32
771.434	24
772.542	21
773.65	29
774.758	9
775.865	22
776.973	23
778.081	22
779.187	14.5
780.293	21.5
781.399	15
782.506	14.5
783.611	15.5
784.716	20
785.821	6
786.926	19
788.03	15.5
789.134	29.5
790.238	27
791.341	5
792.444	24
793.547	14
794.65	14
795.752	28
796.854	25
797.956	21
799.057	5
800.158	25.5
801.259	20
802.359	10
803.459	19
804.559	22.5
805.659	26
806.758	18
807.857	29
808.955	15
810.053	22
811.152	34
812.25	37.5
813.347	32.5
814.444	19
815.541	18.5
816.638	20
817.733	18
818.83	30.5
819.925	32.5
821.02	28
822.115	28
823.21	27
824.305	37
825.398	42
826.492	37.5
827.586	41.5
828.679	47
829.772	41
830.865	44
831.957	43.5
833.049	54.5
834.141	47
835.232	55
836.323	75.5
837.414	58.5
838.505	41
839.595	54.5
840.685	76.5
841.774	66
842.864	51
843.952	64
845.041	69
846.129	46
847.218	44.5
848.306	43.75
849.393	43
850.48	44
851.567	49
852.654	67
853.74	30
854.826	64.5
855.912	50.5
856.997	50
858.082	37
859.167	47
860.252	52
861.336	57.5
862.42	30
863.504	50
864.587	55
865.67	52
866.753	63.5
867.835	62.5
868.917	53
869.999	46
871.081	44.5
872.162	63.5
873.243	43
874.323	54.5
875.404	54.5
876.484	52
877.564	43
878.643	59.5
879.722	45.5
880.802	37
881.88	54
882.958	45
884.036	68.5
885.113	38.5
886.191	42
887.268	40.5
888.344	59.5
889.421	53
890.498	54.5
891.573	40
892.649	51
893.724	41.5
894.799	33
895.874	50
896.948	47
898.022	29.5
899.096	30.5
900.17	36.5
901.243	48
902.315	58.5
903.389	47.5
904.461	50
905.533	45
906.605	48.5
907.676	42
908.747	48
909.818	44
910.888	46.5
911.958	48
913.028	44
914.098	52
915.167	43.5
916.237	39
917.306	40
918.374	36.5
919.442	46
920.51	37
921.577	24
922.644	42.5
923.711	32
924.778	39.5
925.845	39
926.911	42
927.977	35
929.042	39.5
930.107	25
931.173	38
932.237	31
933.301	29
934.365	31.5
935.429	39
936.492	36.5
937.556	31
938.619	35.5
939.681	34
940.743	22
941.805	34.5
942.867	34
943.928	28
944.989	29.5
946.05	31
947.11	44
948.17	25
949.23	36.5
950.29	42.5
951.349	35
952.409	28
953.467	30
954.526	44
955.584	36
956.641	31
957.699	23.5
958.756	33.5
959.813	31
960.869	29
961.926	49
962.982	40.5
964.038	39.5
965.094	33
966.149	45.5
967.204	28
968.258	38
969.312	33.5
970.366	35
971.42	37
972.473	48
973.527	45.5
974.58	32.5
975.631	30
976.684	28
977.736	34
978.787	32
979.839	14
980.89	39
981.94	20
982.991	25
984.041	26.5
985.091	24
986.141	24.5
987.19	0
988.239	15.5
989.288	18
990.336	22
991.384	25
992.432	19.5
993.48	20
994.527	11
995.574	26.5
996.62	13
997.666	17
998.713	16
999.759	29.5
1000.8	24
1001.85	16.5
1002.89	32
1003.94	16
1004.98	22.5
1006.03	14
1007.07	26
1008.11	23.5
1009.16	18.5
1010.2	28
1011.24	14.5
1012.29	25
1013.33	9
1014.37	20
1015.41	37
1016.45	25
1017.49	20.5
1018.53	36.5
1019.57	18.5
1020.61	21.5
1021.65	24.5
1022.69	13.5
1023.73	20
1024.77	22.5
1025.81	23
1026.85	26
1027.88	32
1028.92	32
1029.96	23
1031	25
1032.03	24.5
1033.07	17
1034.1	27
1035.14	18
1036.18	25.5
1037.21	33
1038.25	31
1039.28	15
1040.32	25
1041.35	29.5
1042.38	24.5
1043.42	36.5
1044.45	25
1045.48	21
1046.52	18.5
1047.55	17
1048.58	24.5
1049.61	20
1050.64	35
1051.67	14
1052.71	35
1053.74	25.5
1054.77	28.5
1055.8	32
1056.83	20
1057.85	30
1058.88	25
1059.91	22
1060.94	41
1061.97	40
1063	37
1064.03	42
1065.05	40.5
1066.08	35
1067.11	37.5
1068.13	23.5
1069.16	30
1070.19	47
1071.21	38.5
1072.24	43
1073.26	39
1074.29	53.5
1075.31	48.5
1076.34	42.5
1077.36	44
1078.38	42
1079.41	29
1080.43	39.5
1081.45	43.5
1082.47	43.5
1083.5	48
1084.52	38
1085.54	27.5
1086.56	43.5
1087.58	37.5
1088.6	38.5
1089.62	42.5
1090.64	38
1091.66	39.5
1092.68	35.5
1093.7	41.5
1094.72	37
1095.74	28.5
1096.76	28
1097.78	34.5
1098.79	27.5
1099.81	17.5
1100.83	24
1101.85	20
1102.86	13.5
1103.88	25.5
1104.9	16
1105.91	35
1106.93	-2
1107.94	35
1108.96	28.5
1109.97	29
1110.99	14.5
1112	30
1113.01	13
1114.03	4
1115.04	24
1116.05	26
1117.07	15
1118.08	19.5
1119.09	26
1120.1	14.5
1121.11	26
1122.13	9.5
1123.14	18.5
1124.15	15
1125.16	13
1126.17	8.5
1127.18	2.5
1128.19	11
1129.2	7
1130.2	12.5
1131.21	17
1132.22	9.5
1133.23	0.5
1134.24	12
1135.25	3
1136.25	-11
1137.26	14
1138.27	9
1139.27	12
1140.28	2
1141.28	1.5
1142.29	13
1143.29	17
1144.3	-2
1145.3	0
1146.31	2
1147.31	-5
1148.32	2
1149.32	8.09286
1150.32	1.20183
1151.33	-12.2914
1152.33	13.4993
1153.33	0.0517659
1154.33	-0.609545
1155.33	-1.78604
1156.34	10.4847
1157.34	3.1715
1158.34	-4.46667
1159.34	-5.7659
1160.34	10.1418
1161.34	-2.49768
1162.34	8.97062
1163.34	1.16234
1164.34	21.8035
1165.34	0.0428571
1166.33	-0.227729
1167.33	9.25758
1168.33	0.0144329
1169.33	0.713114
1170.33	0.120741
1171.32	14.1506
1172.32	12.3372
1173.32	-4.00667
1174.31	9.21296
1175.31	13.9417
1176.31	7.5565
1177.3	5.94252
1178.3	14.9506
1179.29	-0.866667
1180.29	4.90143
1181.28	-2.38483
1182.27	7.03522
1183.27	8.16582
1184.26	16.7594
1185.25	9.87217
1186.25	17.3534
1187.24	8.08407
1188.23	1.14535
1189.22	10.5587
1190.22	1.00231
1191.21	6.36468
1192.2	4.77857
1193.19	10.4625
1194.18	17.0801
1195.17	8.07302
1196.16	4.45335
1197.15	15.6742
1198.14	6.70204
1199.13	8.82261
1200.12	3.31774
1201.11	5.50179
1202.09	11.0617
1203.08	10.6344
1204.07	9.42038
1205.06	8.29593
1206.04	19.2603
1207.03	1.8706
1208.02	11.4347
1209	14.5939
1209.99	6.68157
1210.98	4.52844
1211.96	7.26512
1212.95	18.1211
1213.93	22.7987
1214.92	13.281
1215.9	10.5188
1216.89	20.5934
1217.87	19.6277
1218.85	13.6969
1219.84	6.47389
1220.82	6.81058
1221.8	12.7484
1222.78	20.1603
1223.77	18.963
1224.75	25.4021
1225.73	16.8004
1226.71	15.0345
1227.69	20.8407
1228.67	24.1246
1229.65	21.0032
1230.63	13.6391
1231.61	26.0525
1232.59	29.7614
1233.57	27.4258
1234.55	8.99516
1235.53	29.6016
1236.51	31.1513
1237.49	24.0345
1238.46	20.8722
1239.44	36.5306
1240.42	20.7899
1241.4	35.4801
1242.37	38.1124
1243.35	35.0966
1244.32	35.4643
1245.3	36.8214
1246.28	44.2762
1247.25	49.552
1248.23	41.7433
1249.2	41.1346
1250.18	52.301
1251.15	51.5104
1252.12	44.0667
1252.72	48.5
1253.73	54
1254.74	35
1255.75	50
1256.75	59
1257.76	72
1258.77	47
1259.78	72
1260.79	59
1261.79	77
1262.8	62
1263.81	51
1264.81	75.5
1265.82	61
1266.82	60
1267.83	76
1268.83	80.5
1269.84	72
1270.84	59
1271.85	60.5
1272.85	70
1273.86	56
1274.86	53
1275.86	62
1276.87	53
1277.87	41
1278.87	40
1279.88	54
1280.88	54
1281.88	44.5
1282.88	52
1283.88	57
1284.88	46
1285.88	47
1286.89	47
1287.89	32
1288.89	48
1289.89	47
1290.89	63.5
1291.89	27
1292.88	62
1293.88	73
1294.88	79
1295.88	62.5
1296.88	65.5
1297.88	81
1298.88	74
1299.87	78
1300.87	85
1301.87	89
1302.86	76
1303.86	82.5
1304.86	73
1305.85	64
1306.85	56
1307.85	55
1308.84	53
1309.84	49
1310.83	52
1311.83	39
1312.82	47
1313.81	47
1314.81	46
1315.8	60.5
1316.8	54.5
1317.79	30
1318.78	44.5
1319.77	46.5
1320.77	34
1321.76	32
1322.75	31.5
1323.74	37
1324.73	29
1325.72	34.5
1326.72	29.5
1327.71	23
1328.7	23
1329.69	7
1330.68	34
1331.67	25
1332.66	21
1333.65	21
1334.63	23
1335.62	21
1336.61	26
1337.6	22
1338.59	36
1339.58	18
1340.56	12.5
1341.55	28.5
1342.54	19
1343.53	13
1344.51	21.5
1345.5	22
1346.48	34
1347.47	19
1348.45	18
1349.44	17
1350.43	29
1351.41	25
1352.4	26.5
1353.38	21
1354.36	24
1355.35	26
1356.33	25
1357.31	15
1358.3	23
1359.28	14
1360.26	14
1361.25	25
1362.23	7
1363.21	30
1364.19	23
1365.17	35.5
1366.15	13
1367.14	10
1368.12	30.5
1369.1	18.5
1370.08	11
1371.06	15.5
1372.04	35
1373.02	16
1373.99	21
1374.97	15
1375.95	12
1376.93	29.5
1377.91	3
1378.89	6
1379.86	18
1380.84	20
1381.82	10
1382.8	11
1383.77	8
1384.75	7
1385.73	9.5
1386.7	0
1387.68	16
1388.65	14
1389.63	4
1390.6	23.5
1391.58	20
1392.55	18
1393.53	5.5
1394.5	8
1395.48	11
1396.45	1.5
1397.42	11
1398.4	29.5
1399.37	28.5
1400.34	19.5
1401.31	18.5
1402.29	12
1403.26	9
1404.23	14
1405.2	22
1406.17	18
1407.14	0
1408.11	14
1409.08	17.5
1410.05	15
1411.02	-5.5
1411.99	13.5
1412.96	15
1413.93	22.5
1414.9	15
1415.87	21
1416.84	4
1417.81	19
1418.78	16
1419.74	14
1420.71	3
1421.68	21
1422.65	20
1423.61	19.5
1424.58	17
1425.55	27.5
1426.51	31
1427.48	16
1428.44	49
1429.41	46.5
1430.37	48
1431.34	64
1432.3	53.5
1433.27	56
1434.23	87
1435.2	90.5
1436.16	86.5
1437.12	82.5
1438.09	95
1439.05	95
1440.01	81
1440.97	69.5
1441.94	79
1442.9	72
1443.86	70
1444.82	56
1445.78	62
1446.74	54.5
1447.7	63
1448.67	62
1449.63	58
1450.59	57
1451.55	54
1452.5	44.5
1453.46	55
1454.42	52.5
1455.38	48
1456.34	53
1457.3	51.5
1458.26	42
1459.21	34
1460.17	34
1461.13	21
1462.09	45
1463.04	41
1464	37
1464.96	17
1465.91	10
1466.87	10
1467.82	16.5
1468.78	16.5
1469.73	10
1470.69	10
1471.64	2.5
1472.6	4.5
1473.55	12
1474.51	4.5
1475.46	17
1476.41	-6
1477.37	8.5
1478.32	-11
1479.27	6.5
1480.23	-4
1481.18	1.5
1482.13	0
1483.08	-16
1484.03	2.5
1484.98	1
1485.94	-1.5
1486.89	-32
1487.84	-0.5
1488.79	-17
1489.74	-3
1490.69	-13
1491.64	-9.5
1492.59	-2.5
1493.54	6.5
1494.48	-14
1495.43	-11
1496.38	-4
1497.33	-11
1498.28	-18
1499.23	0.5
1500.17	-10
1501.12	-4.5
1502.07	-20
1503.01	-21
1503.96	-1
1504.91	-12
1505.85	-12
1506.8	-10.5
1507.74	-25
1508.69	-0.5
1509.64	-8
1510.58	-6
1511.52	-8
1512.47	-11.5
1513.41	-11.5
1514.36	-2
1515.3	-14
1516.24	-16.5
1517.19	9
1518.13	-8
1519.07	-9
1520.01	-11
1520.96	-5
1521.9	-22
1522.84	-17
1523.78	-9.5
1524.72	-18
1525.66	-14.5
1526.6	-14
1527.55	-20
1528.49	-16
1529.43	-18
1530.37	-15.5
1531.3	-16
1532.24	-9.5
1533.18	-12
1534.12	-11.5
1535.06	-16.5
1536	-17.5
1536.94	-18
1537.88	-2.5
1538.81	-38
1539.75	-6.5
1540.69	-14
1541.62	-9.5
1542.56	-14
1543.5	-10.5
1544.43	-10.5
1545.37	-21
1546.3	-21
1547.24	-25
1548.18	-7
1549.11	1.5
1550.05	-1.5
1550.98	-18
1551.91	-20
1552.85	-10.5
1553.78	-16.5
1554.72	-16
1555.65	-12
1556.58	-22
1557.51	-18.5
1558.45	-10
1559.38	-16
1560.31	-2
1561.24	-9.5
1562.17	-19
1563.11	-13.5
1564.04	-18.5
1564.97	-11
1565.9	-30
1566.83	-16
1567.76	-11.5
1568.69	-7
1569.62	-29
1570.55	-14.5
1571.48	-10.5
1572.41	-22
1573.34	-22.5
1574.26	-1
1575.19	-38
1576.12	-10
1577.05	-15
1577.98	-25.5
1578.9	-19
1579.83	-35
1580.76	-6
1581.68	-11.5
1582.61	-21
1583.54	-20
1584.46	-21.5
1585.39	-15.5
1586.31	-18
1587.24	-18
1588.16	-30.5
1589.09	-20
1590.01	-24
1590.94	-19
1591.86	-12
1592.78	-22
1593.71	-9.5
1594.63	-27.5
1595.55	-10.5
1596.48	-10
1597.4	-19
1598.32	-20
1599.24	-19
1600.17	-41
1601.09	-20.5
1602.01	1.5
1602.93	-20
1603.85	-21
1604.77	-19
1605.69	-15
1606.61	-11
1607.53	-21
1608.45	-4
1609.37	-19
1610.29	-26
1611.21	-9.5
1612.13	-3.5
1613.05	-27
1613.96	-20.5
1614.88	-4.5
1615.8	-8.5
1616.72	-25
1617.63	-16.5
1618.55	-19.5
1619.47	-14
1620.38	-25
1621.3	-19.5
1622.22	-18.5
1623.13	-24
1624.05	-16.5
1624.96	-4.5
1625.88	-2
1626.79	-4.5
1627.71	-17
1628.62	-16.5
1629.54	5
1630.45	-21
1631.37	-8.5
1632.28	-5.5
1633.19	-24
1634.1	-5
1635.02	-10
1635.93	7
1636.84	-2
1637.75	-14
1638.67	-6.5
1639.58	-6
1640.49	-18
1641.4	3.5
1642.31	1
1643.22	-2
1644.13	-8
1645.04	3
1645.95	27.5
1646.86	5
1647.77	35.5
1648.68	15
1649.59	17
1650.5	28
1651.41	55
1652.31	53
1653.22	36
1654.13	48.5
1655.04	50.5
1655.95	55
1656.85	60
1657.76	51
1658.67	47
1659.57	43
1660.48	35
1661.38	36
1662.29	28.5
1663.2	18
1664.1	2.5
1665.01	9
1665.91	-4
1666.81	-1
1667.72	-9.5
1668.62	-7
1669.53	-25
1670.43	-26
1671.33	-4.5
1672.24	-13
1673.14	-11
1674.04	-13.5
1674.94	-10
1675.85	-12.5
1676.75	-11
1677.65	-24.5
1678.55	-19
1679.45	-8
1680.35	-23.5
1681.25	-1.5
1682.15	-5
1683.05	-29
1683.95	-20.5
1684.85	-10.5
1685.75	-25
1686.65	-27
1687.55	-25.5
1688.45	-16
1689.35	-29
1690.25	-24.5
1691.15	-14
1692.04	-29
1692.94	-24
1693.84	-24
1694.74	-40.5
1695.63	-38
1696.53	-27
1697.43	-19
1698.32	-22
1699.22	-50
1700.11	-23.5
1701.01	-13
1701.9	-11
1702.8	-40
1703.69	-25
1704.59	-10
1705.48	-40
1706.38	-40
1707.27	-22
1708.16	-10
1709.06	-19
1709.95	-27.5
1710.84	-17
1711.74	-21
1712.63	-35
1713.52	-19
1714.41	-27
1715.3	-27
1716.2	-23.5
1717.09	-28.5
1717.98	-7
1718.87	-32
1719.76	-30
1720.65	-37
1721.54	-24
1722.43	-32
1723.32	-20.5
1724.21	-36
1725.1	-17
1725.99	-19.5
1726.88	-25
1727.76	-11
1728.65	-30
1729.54	-26.5
1730.43	-1
1731.31	-23
1732.2	-21.5
1733.09	-17
1733.98	-19
1734.86	-7
1735.75	-14
1736.63	-13
1737.52	-6.5
1738.41	-12
1739.29	-30
1740.18	-20
1741.06	-5
1741.95	-15
1742.83	-20.5
1743.72	-9.5
1744.6	-12
1745.48	-10
1746.37	0
1747.25	-20.5
1748.13	-13
1749.02	-22.5
1749.9	-18
1750.78	-16
1751.66	-15.5
1752.54	-15
1753.43	-4.25
1754.31	-12
1755.19	-15
1756.07	-5.5
1756.95	-9
1757.83	-28
1758.71	-28
1759.59	-19.5
1760.47	-8
1761.35	-16.5
1762.23	-18
1763.11	-18
1763.99	-42
1764.87	-26
1765.74	-18
1766.62	-8.5
1767.5	-21
1768.38	-20
1769.25	7
1770.13	-25
1771.01	-35
1771.89	-25.5
1772.76	-20
1773.64	-33
1774.51	-30.5
1775.39	-11
1776.27	-12
1777.14	-24
1778.02	-28
1778.89	-18
1779.76	-26
1780.64	-16.5
1781.51	-36
1782.39	-20.5
1783.26	-14.5
1784.13	-10.5
1785.01	-22.5
1785.88	-7
1786.75	-16.5
1787.63	-23.5
1788.5	-11.5
1789.37	-20
1790.24	-29
1791.11	-25.5
1791.98	-33
1792.86	-39
1793.73	-37
1794.6	-25.5
1795.47	-24
1796.34	-31
1797.21	-24
1798.08	-26
1798.95	-27
1799.82	-18
1800.68	-21.5
1801.55	-28
1802.42	-55
1803.29	-30.5
1804.16	-14
1805.03	-18
1805.89	-31
1806.76	-23.5
1807.63	-22
1808.49	-19
1809.36	-25
1810.23	-30
1811.09	-32
1811.96	-14
1812.83	-19.5
1813.69	-26.5
1814.56	-18
1815.42	-23
1816.29	-28.5
1817.15	-31
1818.02	-33
1818.88	-26.5
1819.74	-25
1820.61	-20.5
1821.47	-34
1822.33	-28
1823.2	-17.5
1824.06	-16
1824.92	-27
1825.78	-29
1826.65	-20.5
1827.51	-30
1828.37	-24.5
1829.23	-30
1830.09	-42
1830.95	-18
1831.81	-34.5
1832.67	-20
1833.53	-25
1834.39	-21.5
1835.25	-29
1836.11	-36
1836.97	-15.5
1837.83	-24.5
1838.69	-19
1839.55	-24.5
1840.41	-30
1841.26	-20
1842.12	-28.5
1842.98	-15
1843.84	-25.5
1844.69	-31.5
1845.55	-44
1846.41	-23
1847.26	-38
1848.12	-20
1848.98	-33
1849.83	-38
1850.69	-14
1851.54	-11.5
1852.4	-22.5
1853.25	-36
1854.11	-31.5
1854.96	-33
1855.82	-15
1856.67	-31.5
1857.52	-18
1858.38	-33.5
1859.23	-26
1860.08	-32
1860.93	-35
1861.79	-17
1862.64	-19.5
1863.49	-22.5
1864.34	-22
1865.19	-50
1866.05	-22
1866.9	-30
1867.75	-38
1868.6	-17
1869.45	-35
1870.3	-13.5
1871.15	-29
1872	-29
1872.85	-29.5
1873.7	-22
1874.55	-26
1875.4	-30.5
1876.24	-32
1877.09	-46
1877.94	-20.5
1878.79	-23.5
1879.64	-21
1880.48	-18
1881.33	-29.5
1882.18	-33.5
1883.02	-31
1883.87	-28
1884.72	-35.5
1885.56	-25
1886.41	-21
1887.25	-35
1888.1	-16
1888.94	-16
1889.79	-29
1890.63	-23
1891.48	-26.5
1892.32	-34
1893.17	-25.5
1894.01	-23.5
1894.85	-13
1895.7	-27
1896.54	-29.5
1897.38	-23
1898.23	-28
1899.07	-20
1899.91	-27
1900.75	-23
1901.59	-8
1902.44	-37
1903.28	-30
1904.12	-35
1904.96	-28
1905.8	-26.5
1906.64	-24
1907.48	-40
1908.32	-30
1909.16	-29
1910	-32
1910.84	-34
1911.68	-27.5
1912.51	-29
1913.35	-13.5
1914.19	-29
1915.03	-36
1915.87	-21
1916.7	-26
1917.54	-23.5
1918.38	-25
1919.21	-25
1920.05	-37
1920.89	-28
1921.72	-26
1922.56	-22
1923.4	-25
1924.23	-25.5
1925.07	-23
1925.9	-18.5
1926.74	-28.5
1927.57	-24
1928.41	-29
1929.24	-41
1930.07	-19.5
1930.91	-31.5
1931.74	-15
1932.57	-35
1933.41	-20
1934.24	-16.5
1935.07	-31
1935.9	-34
1936.74	-33
1937.57	-38
1938.4	-42
1939.23	-26
1940.06	-33
1940.89	-18
1941.72	-27
1942.55	-24.5
1943.38	-20
1944.21	-33
1945.04	-28
1945.87	-28
1946.7	-29
1947.53	-27
1948.36	-22
1949.19	-26.5
1950.02	-23
1950.84	-33
1951.67	-32.5
1952.5	-23.5
1953.33	-25
1954.15	-28.5
1954.98	-29
1955.81	-28
1956.64	-33
1957.46	-28
1958.29	-20.5
1959.11	-25
1959.94	-43.5
1960.76	-26
1961.59	-19.5
1962.41	-14
1963.24	-27.5
1964.06	-33
1964.89	-45
1965.71	-25
1966.53	-35
1967.36	-29
1968.18	-25
1969	-27
1969.83	-30
1970.65	-16
1971.47	-29
1972.3	-23
1973.12	-27
1973.94	-32
1974.76	-36
1975.58	-24.5
1976.4	-24
1977.22	-29
1978.04	-24
1978.86	-21
1979.68	-22.5
1980.5	-38
1981.32	-23.5
1982.14	-29
1982.96	-31
1983.78	-19
1984.6	-31
1985.42	-27
1986.24	-13
1987.06	-25.5
1987.87	-28
1988.69	-23
1989.51	-27
1990.32	-24.5
1991.14	-11
1991.96	-32
1992.78	-28
1993.59	-35.5
1994.41	-26.5
1995.22	-18.5
1996.04	-40
1996.85	-28
1997.67	-16.9619
1998.48	-28.7681
1999.3	-25.8841
2000.11	-24.9791
2000.93	-49.9901
2001.74	-30.9353
2002.56	-32.2017
2003.37	-24.0459
2004.18	-14.1593
2004.99	-35.5879
2005.81	-34.6895
2006.62	-8.91726
2007.43	-20.391
2008.25	-23.9658
2009.06	-30.3545
2009.87	-40.6847
2010.68	-28.4635
2011.49	-34.3052
2012.3	-27.5779
2013.11	-29.1537
2013.92	-37.262
2014.73	-29.2654
2015.54	-12.741
2016.35	-28.9425
2017.16	-24.4289
2017.97	-19.5129
2018.78	-23.3536
2019.59	-22.5932
2020.4	-27.5422
2021.21	-25.4247
2022.02	-20.6749
2022.83	-28.5821
2023.63	-22.233
2024.44	-14.8839
2025.25	-29.3234
2026.06	-24.7961
2026.86	-26.5988
2027.67	-31.0673
2028.48	-24.5966
2029.28	-19.138
2030.09	-14.0581
2030.89	-24.2267
2031.7	-22.0344
2032.5	-35.8297
2033.31	-21.2406
2034.11	-27.3217
2034.92	-30.1729
2035.72	-30.0393
2036.53	-26.0027
2037.33	-15.6984
2038.14	-23.4912
2038.94	-20.2833
2039.74	-17.77
2040.55	-26.721
2041.35	-22.9126
2042.15	-25.9954
2042.95	-24.1687
2043.76	-18.3227
2044.56	-24.6202
2045.36	-31.2729
2046.16	-26.5445
2046.96	-22.2115
2047.76	-27.5816
2048.56	-22.8821
2049.37	-24.7805
2050.17	-18.6231
2050.97	-28.427
2051.77	-25.8875
2052.57	-25.5991
2053.36	-21.0057
2054.16	-40.5497
2054.96	-25.3255
2055.76	-20.023
2056.56	-25.9775
2057.36	-24.8027
2058.16	-18.8719
2058.96	-17.8467
2059.75	-29.9622
2060.55	-24.4504
2061.35	-15.7347
2062.14	-8.06795
2062.94	-19.754
2063.74	-26.1836
2064.53	-19.3281
2065.33	-15.7068
2066.13	-16.5116
2066.92	-19.3834
2067.72	-20.5733
2068.51	-18.6249
2069.31	-17.2611
2070.1	-22.8777
2070.9	-14.5881
2071.69	-20.514
2072.49	-22.9004
2073.28	-15.9527
2074.07	-15.0983
2074.87	-23.8448
2075.66	-13.1868
2076.45	-15.1597
2077.25	-28.2274
2078.04	-19.1581
2078.83	-20.405
2079.62	-11.9321
2080.41	-10.2244
2081.21	-20.2676
2081.38	-23
2082.2	-15.5
2083.03	-18
2083.86	-6.5
2084.68	-24
2085.51	-8.5
2086.34	-13
2087.16	-12
2087.99	-9
2088.81	-1.5
2089.64	-16
2090.46	-17
2091.29	-4
2092.11	0.5
2092.94	-17.5
2093.76	-21
2094.58	2.5
2095.41	-18.5
2096.23	-17
2097.06	-16.5
2097.88	2
2098.7	-17.5
2099.53	-18
2100.35	-4
2101.17	-4.5
2101.99	-21
2102.81	-13
2103.64	-17.5
2104.46	-7
2105.28	-38
2106.1	-16
2106.92	-3
2107.74	-16
2108.56	-25
2109.38	-12
2110.2	8
2111.03	-35
2111.84	-11
2112.66	-11
2113.48	-19
2114.3	-36
2115.12	-15
2115.94	-11
2116.76	-9
2117.58	-18.5
2118.4	-15
2119.22	-13
2120.03	-18.5
2120.85	-29
2121.67	-15
2122.49	-31.5
2123.3	-22
2124.12	-15.5
2124.94	-3
2125.76	-23
2126.57	-39
2127.39	-14
2128.2	-14
2129.02	-25
2129.83	-18
2130.65	-13
2131.47	-20
2132.28	-27
2133.1	-7
2133.91	-7.5
2134.73	-15.5
2135.54	-30.5
2136.35	-20
2137.17	-28
2137.98	-35
2138.79	-22
2139.61	-10.5
2140.42	-16
2141.23	-27.5
2142.05	-10.5
2142.86	3
2143.67	-24
2144.48	-18
2145.3	-11
2146.11	-5
2146.92	-17
2147.73	-9
2148.54	-14
2149.35	-18.5
2150.16	-24
2150.97	-14
2151.79	-5
2152.6	-9
2153.41	-24.5
2154.22	-0.5
2155.02	-22
2155.83	-18
2156.64	-19
2157.45	-26
2158.26	-22
2159.07	-17
2159.88	-13
2160.69	-10
2161.5	-20
2162.3	-21.5
2163.11	-2.5
2163.92	-21
2164.73	-17.5
2165.53	-14
2166.34	-2
2167.15	-22
2167.95	-25
2168.76	-23
2169.57	-19.5
2170.37	-22
2171.18	-17.5
2171.98	-13
2172.79	-19.5
2173.59	-27
2174.4	-14
2175.2	-13
2176.01	-22
2176.81	-21.5
2177.62	-15
2178.42	-6.5
2179.22	-14.5
2180.03	-27
2180.83	-28
2181.63	-31
2182.44	-28.5
2183.24	-24
2184.04	-16
2184.85	-30.5
2185.65	-25.5
2186.45	-18.5
2187.25	-16
2188.05	-26
2188.86	-29.5
2189.66	-21
2190.46	-27.5
2191.26	-22.5
2192.06	-23.5
2192.86	-17
2193.66	-32
2194.46	-36
2195.26	-9.5
2196.06	-15
2196.86	-22.5
2197.66	-25
2198.46	-12
2199.26	-33
2200.06	-33.5
2200.85	-21.5
2201.65	-30
2202.45	-31
2203.25	-31.5
2204.05	-24
2204.84	-27
2205.64	-25
2206.44	-30
2207.24	-26
2208.03	-30
2208.83	-27.5
2209.63	-18
2210.42	-29.5
2211.22	-19
2212.01	-24
2212.81	-32.5
2213.61	-26.5
2214.4	-30.5
2215.2	-28.5
2215.99	-36
2216.79	-27
2217.58	-27.5
2218.37	-22.5
2219.17	-20
2219.96	-40
2220.76	-31
2221.55	-20
2222.34	-30
2223.14	-22.5
2223.93	-27.5
2224.72	-28
2225.51	-30.5
2226.31	-38
2227.1	-21.5
2227.89	-23
2228.68	-34
2229.47	-45.5
2230.27	-18.5
2231.06	-20.5
2231.85	-28
2232.64	-22
2233.43	-25
2234.22	-25.5
2235.01	-44.5
2235.8	-24.5
2236.59	-30.5
2237.38	-41
2238.17	-31.5
2238.96	-16
2239.75	-44
2240.54	-18.5
2241.33	-32.5
2242.11	-21.5
2242.9	-44
2243.69	-40
2244.48	-38
2245.27	-29
2246.05	-37
2246.84	-34
2247.63	-22
2248.41	-32.5
2249.2	-34.5
2249.99	-26.5
2250.77	-36
2251.56	-29
2252.35	-31.5
2253.13	-29
2253.92	-43
2254.7	-34
2255.49	-31.5
2256.27	-26
2257.06	-41.5
2257.84	-21.5
2258.63	-21.5
2259.41	-37
2260.2	-39
2260.98	-31.5
2261.76	-17
2262.55	-22.5
2263.33	-37
2264.11	-31
2264.9	-13.5
2265.68	-25.5
2266.46	-39.5
2267.24	-39
2268.03	-22
2268.81	-28.5
2269.59	-30
2270.37	-23
2271.15	-41
2271.93	-39.5
2272.71	-31
2273.5	-23.5
2274.28	-52
2275.06	-41
2275.84	-19.5
2276.62	-35
2277.4	-30
2278.18	-32
2278.96	-24
2279.73	-24
2280.51	-38.5
2281.29	-28
2282.07	-31
2282.85	-32
2283.63	-34
2284.41	-35.5
2285.18	-37
2285.96	-34
2286.74	-20
2287.52	-27
2288.29	-27
2289.07	-57
2289.85	-35
2290.62	-18
2291.4	-37
2292.18	-33
2292.95	-27
2293.73	-30
2294.5	-33
2295.28	-25.5
2296.05	-34
2296.83	-28.5
2297.6	-37
2298.38	-31.5
2299.15	-19.5
2299.93	-37
2300.7	-35
2301.48	-24.5
2302.25	-46
2303.02	-45
2303.8	-32.5
2304.57	-31
2305.34	-40
2306.11	-33.5
2306.89	-33.5
2307.66	-27.5
2308.43	-39.5
2309.2	-35
2309.97	-32
2310.75	-41
2311.52	-36
2312.29	-29.5
2313.06	-33
2313.83	-32.5
2314.6	-35
2315.37	-29.5
2316.14	-17
2316.91	-41
2317.68	-25
2318.45	-22.5
2319.22	-50
2319.99	-31
2320.76	-31
2321.53	-48
2322.3	-40
2323.06	-39
2323.83	-27.5
2324.6	-29
2325.37	-44
2326.14	-18.5
2326.9	-31.5
2327.67	-42
2328.44	-42
2329.21	-28
2329.97	-17
2330.74	-26
2331.5	-26.5
2332.27	-24
2333.04	-34
2333.8	-38.5
2334.57	-38.5
2335.33	-32
2336.1	-46
2336.86	-47
2337.63	-23.5
2338.39	-29
2339.16	-33
2339.92	-45
2340.69	-30
2341.45	-25.5
2342.21	-37
2342.98	-31.5
2343.74	-18.5
2344.5	-47
2345.27	-34
2346.03	-28.5
2346.79	-26
2347.55	-35
2348.31	-38
2349.08	-40
2349.84	-36
2350.6	-41
2351.36	-23
2352.12	-23
2352.88	-44
2353.64	-36
2354.41	-27
2355.17	-30
2355.93	-39
2356.69	-29.5
2357.45	-25.5
2358.21	-37
2358.96	-40
2359.72	-30
2360.48	-28
2361.24	-46
2362	-37
2362.76	-24
2363.52	-28
2364.28	-39.5
2365.03	-36.5
2365.79	-20.5
2366.55	-37
2367.31	-26.5
2368.06	-29
2368.82	-22
2369.58	-36
2370.33	-40
2371.09	-19.5
2371.85	-33.5
2372.6	-38
2373.36	-32
2374.11	-17
2374.87	-25.5
2375.62	-35
2376.38	-23
2377.13	-29.5
2377.89	-39
2378.64	-41
2379.4	-21
2380.15	-35
2380.9	-36
2381.66	-32.5
2382.41	-23
2383.16	-37.5
2383.92	-42.5
2384.67	-25.5
2385.42	-31
2386.18	-63
2386.93	-37.5
2387.68	-32
2388.43	-42
2389.18	-38
2389.94	-37
2390.69	-41
2391.44	-44
2392.19	-35
2392.94	-17.5
2393.69	-35
2394.44	-40.5
2395.19	-34.5
2395.94	-14
2396.69	-18.5
2397.44	-42
2398.19	-28.5
2398.94	-32.5
2399.69	-33.5
2400.44	-38.5
2401.19	-20.5
2401.93	-40.5
2402.68	-46
2403.43	-25
2404.18	-30
2404.93	-35
2405.67	-39.5
2406.42	-24
2407.17	-32
2407.92	-53
2408.66	-40
2409.41	-20
2410.16	-22.5
2410.9	-50.5
2411.65	-19.5
2412.39	-34
2413.14	-36.5
2413.89	-28.5
2414.63	-29
2415.38	-36
2416.12	-39
2416.86	-31
2417.61	-23.5
2418.35	-38
2419.1	-56
2419.84	-25.5
2420.59	-36
2421.33	-49
2422.07	-35.5
2422.82	-16
2423.56	-33.5
2424.3	-35.5
2425.04	-37
2425.79	-27
2426.53	-42
2427.27	-40
2428.01	-32.5
2428.75	-25
2429.5	-36
2430.24	-35
2430.98	-30.5
2431.72	-26
2432.46	-44
2433.2	-37.5
2433.94	-21.5
2434.68	-32
2435.42	-35.5
2436.16	-29
2436.9	-47
2437.64	-37.5
2438.38	-35
2439.12	-22.5
2439.86	-22
2440.59	-37
2441.33	-27.5
2442.07	-18.5
2442.81	-43
2443.55	-52
2444.28	-22.5
2445.02	-26
2445.76	-53
2446.5	-31.5
2447.23	-36
2447.97	-34.5
2448.71	-36.5
2449.44	-35
2450.18	-28
2450.91	-24
2451.65	-38.5
2452.39	-35.5
2453.12	-18.5
2453.86	-39
2454.59	-28.5
2455.33	-16
2456.06	-31
2456.79	-36.5
2457.53	-32
2458.26	-15
2459	-38
2459.73	-49
2460.46	-20
2461.2	-28
2461.93	-44
2462.66	-50.5
2463.4	-23
2464.13	-34
2464.86	-28
2465.59	-45
2466.32	-14.5
2467.06	-44
2467.79	-40
2468.52	-25.5
2469.25	-31
2469.98	-47
2470.71	-35
2471.44	-27.5
2472.17	-31
2472.9	-30.5
2473.63	-38.5
2474.36	-32
2475.09	-38.5
2475.82	-38
2476.55	-29
2477.28	-29.5
2478.01	-40
2478.74	-34.5
2479.47	-21.5
2480.19	-29
2480.92	-46
2481.65	-20
2482.38	-24
2483.11	-49
2483.83	-43
2484.56	-26
2485.29	-27
2486.01	-40
2486.74	-32.5
2487.47	-20
2488.19	-34
2488.92	-45
2489.65	-25
2490.37	-26
2491.1	-29
2491.82	-43
2492.55	-29.5
2493.27	-37
2494	-65
2494.72	-29
2495.45	-32
2496.17	-43
2496.89	-34.5
2497.62	-30
2498.34	-24.5
2499.06	-38
2499.79	-42.5
2500.51	-14.5
2501.23	-31.5
2501.96	-47.5
2502.68	-39.5
2503.4	-17.5
2504.12	-46
2504.84	-33.5
2505.57	-24
2506.29	-26
2507.01	-53
2507.73	-38.5
2508.45	-20
2509.17	-33
2509.89	-43
2510.61	-40.5
2511.33	-27
2512.05	-32
2512.77	-33
2513.49	-28
2514.21	-36
2514.93	-33.5
2515.65	-40
2516.37	-16
2517.09	-41
2517.81	-47
2518.52	-31
2519.24	-54
2519.96	-43
2520.68	-34
2521.4	-19.5
2522.11	-33
2522.83	-41
2523.55	-34
2524.26	-33
2524.98	-34.5
2525.7	-35
2526.41	-32.5
2527.13	-23
2527.84	-41
2528.56	-27.5
2529.28	-28.5
2529.99	-11.5
2530.71	-43.5
2531.42	-28
2532.14	-21.5
2532.85	-34.5
2533.56	-36
2534.28	-35
2534.99	-34
2535.71	-35
2536.42	-36
2537.13	-32.5
2537.85	-39
2538.56	-39.5
2539.27	-36.5
2539.98	-32.5
2540.7	-46.5
2541.41	-31.5
2542.12	-29.5
2542.83	-27.5
2543.54	-39
2544.26	-37.5
2544.97	-28
2545.68	-20
2546.39	-33.5
2547.1	-36.5
2547.81	-27.5
2548.52	-35
2549.23	-46
2549.94	-34
2550.65	-39
2551.36	-50
2552.07	-33
2552.78	-23.5
2553.49	-27
2554.2	-39.5
2554.91	-31.5
2555.61	-23.5
2556.32	-35
2557.03	-51
2557.74	-29
2558.45	-58
2559.15	-44
2559.86	-30
2560.57	-23
2561.27	-33
2561.98	-37
2562.69	-28.5
2563.39	-35
2564.1	-35
2564.81	-30.5
2565.51	-22.5
2566.22	-34
2566.92	-44
2567.63	-24.5
2568.33	-26
2569.04	-28
2569.74	-38
2570.45	-34.5
2571.15	-37
2571.86	-32
2572.56	-43
2573.26	-20.5
2573.97	-34.5
2574.67	-47.5
2575.37	-38
2576.08	-28
2576.78	-37
2577.48	-32.5
2578.19	-25
2578.89	-30
2579.59	-26
2580.29	-39
2580.99	-26.5
2581.69	-42
2582.4	-31
2583.1	-27
2583.8	-29
2584.5	-37
2585.2	-37
2585.9	-31.5
2586.6	-30.5
2587.3	-29
2588	-35
2588.7	-17
2589.4	-27
2590.1	-38
2590.8	-35
2591.5	-21.5
2592.19	-32.5
2592.89	-34
2593.59	-34
2594.29	-43
2594.99	-23.5
2595.68	-27
2596.38	-28
2597.08	-33
2597.78	-36.5
2598.47	-26.5
2599.17	-22.5
2599.87	-35
2600.56	-36
2601.26	-33
2601.96	-35
2602.65	-34.5
2603.35	-30
2604.04	-45
2604.74	-31
2605.43	-27
2606.13	-21.5
2606.82	-35
2607.52	-61
2608.21	-28
2608.91	-23.5
2609.6	-32
2610.29	-31
2610.99	-26.5
2611.68	-35
2612.37	-29.5
2613.07	-40
2613.76	-24.5
2614.45	-28.5
2615.15	-39
2615.84	-31.5
2616.53	-36
2617.22	-46.5
2617.91	-34
2618.6	-33
2619.3	-19
2619.99	-28.5
2620.68	-34
2621.37	-18.5
2622.06	-32
2622.75	-31
2623.44	-33
2624.13	-27
2624.82	-44
2625.51	-30
2626.2	-31
2626.89	-32
2627.58	-46
2628.27	-36
2628.96	-31.5
2629.64	-35
2630.33	-27
2631.02	-35
2631.71	-36.5
2632.4	-35
2633.08	-44
2633.77	-29
2634.46	-30.5
2635.15	-39
2635.83	-35
2636.52	-25
2637.21	-32
2637.89	-43
2638.58	-28.5
2639.26	-30
2639.95	-32.5
2640.64	-31.5
2641.32	-37.5
2642.01	-26
2642.69	-25.5
2643.38	-15
2644.06	-24
2644.75	-39
2645.43	-19
2646.11	-28.5
2646.8	-39
2647.48	-36.5
2648.16	-36.5
2648.85	-26
2649.53	-33
2650.21	-42
2650.9	-23.5
2651.58	-20.5
2652.26	-38
2652.94	-27
2653.63	-29.5
2654.31	-35
2654.99	-39.5
2655.67	-39
2656.35	-32
2657.03	-21
2657.71	-52
2658.39	-33
2659.08	-29
2659.76	-39.5
2660.44	-42.5
2661.12	-23.5
2661.8	-32.5
2662.48	-27
2663.15	-29
2663.83	-36.5
2664.51	-22.5
2665.19	-37
2665.87	-31
2666.55	-12
2667.23	-33
2667.91	-27
2668.58	-30
2669.26	-30.5
2669.94	-27.5
2670.62	-37.5
2671.29	-24.5
2671.97	-28.5
2672.65	-36
2673.32	-34
2674	-29
2674.68	-36
2675.35	-37.5
2676.03	-24
2676.7	-31
2677.38	-33
2678.06	-28
2678.73	-25.5
2679.41	-31.5
2680.08	-31
2680.75	-28.5
2681.43	-22.5
2682.1	-41
2682.78	-30.5
2683.45	-35
2684.12	-32
2684.8	-18.5
2685.47	-21
2686.14	-26.5
2686.82	-25
2687.49	-32
2688.16	-28.5
2688.83	-15.5
2689.51	-36.5
2690.18	-23
2690.85	-33
2691.52	-48
2692.19	-33
2692.86	-22
2693.54	-10.099
2694.21	-30.78
2694.88	-37.5789
2695.55	-32.5923
2696.22	-19.2919
2696.89	-39.4608
2697.56	-31.5315
2698.23	-21.1726
2698.9	-42.0829
2699.57	-39.2271
2700.24	-29.0487
2700.91	-28.0844
2701.57	-35.1831
2702.24	-30.4924
2702.91	-27.9968
2703.58	-28.3262
2704.25	-32.0037
2704.92	-33.4983
2705.58	-21.8706
2706.25	-37.1214
2706.92	-31.4136
2707.58	-28.6949
2708.25	-25.5253
2708.92	-28.0061
2709.59	-25.6896
2710.25	-27.7267
2710.92	-15.0974
2711.58	-32.9281
2712.25	-26.1854
2712.92	-28.9619
2713.58	-30.7607
2714.25	-32.9319
2714.91	-30.3982
2715.58	-19.1515
2716.24	-38.045
2716.91	-26.2526
2717.57	-29.3673
2718.23	-20.8415
2718.9	-35.3094
2719.56	-21.8224
2720.23	-28.5624
2720.89	-35.2016
2721.55	-27.2515
2722.22	-25.9032
2722.88	-26.1413
2723.54	-29.4886
2724.2	-30.0545
2724.87	-19.4848
2725.53	-27.5666
2726.19	-36.4014
2726.85	-28.3752
2727.51	-18.4113
2728.18	-35.3229
2728.84	-31.2393
2729.5	-25.629
2730.16	-24.6004
2730.82	-23.6867
2731.48	-27.3825
2732.14	-25.1102
2732.8	-24.6948
2733.46	-36.272
2734.12	-23.0547
2734.78	-22.245
2735.44	-29.4245
2736.1	-23.2215
2736.76	-27.0202
2737.42	-26.7399
2738.07	-26.026
2738.73	-33.2848
2739.39	-28.6152
2740.05	-20.2201
2740.71	-25.951
2741.37	-24.2406
2742.02	-27.1619
2742.68	-28.4047
2743.34	-29.6973
2743.99	-33.3523
2744.65	-24.0724
2745.31	-25.8837
2745.96	-21.3795
2746.62	-20.8568
2747.28	-20.4032
2747.93	-19.5856
2748.59	-22.8872
2749.24	-28.3454
2749.9	-12.459
2750.55	-15.5678
2751.21	-19.2415
2751.86	-15.4446
2752.52	-10.5578
2753.17	-22.6885
2753.83	-14.4221
2754.48	-20.6008
2755.14	-25.0284
2755.79	-23.7602
2756.44	-24.4225
2757.1	-19.3197
2757.75	-17.876
2758.4	-22.197
2759.05	-18.0424
2759.71	-23.5866
2760.36	-19.9812
2761.01	-16.6689
2761.66	-17.8786
2762.32	-16.3389
2762.97	-16.7142
2763.63	-22
2764.32	-19
2765.01	-9.5
2765.69	-16.5
2766.38	-13.5
2767.07	-13.5
2767.75	-23
2768.44	-25
2769.12	-30
2769.81	-8
2770.49	-17
2771.18	-30
2771.87	-27.5
2772.55	-0.5
2773.24	-20
2773.92	-11.5
2774.6	-20
2775.29	-12.5
2775.97	-33
2776.66	-24
2777.34	-23
2778.03	-10
2778.71	-28
2779.39	-23
2780.08	-9
2780.76	-11
2781.44	-24.5
2782.12	-20.5
2782.81	-20
2783.49	-21
2784.17	-26.5
2784.85	-29.5
2785.54	-14.5
2786.22	-18
2786.9	-18.5
2787.58	-7
2788.26	-9
2788.94	-14
2789.63	-21.5
2790.31	-15
2790.99	-30
2791.67	-17.5
2792.35	-10.5
2793.03	-23
2793.71	-41
2794.39	-7
2795.07	-20
2795.75	-25.5
2796.43	-6.5
2797.11	-17.5
2797.79	-19
2798.46	-31
2799.14	-16
2799.82	-15.5
2800.5	-13.5
2801.18	-26
2801.86	-28.5
2802.54	-19
2803.21	-17.5
2803.89	-22
2804.57	-14.5
2805.25	-15
2805.92	-24
2806.6	-20
2807.28	-15.5
2807.95	-28.5
2808.63	-26
2809.31	-18
2809.98	-10
2810.66	-16.5
2811.34	-11
2812.01	-9
2812.69	-23.5
2813.36	-13
2814.04	-11.5
2814.71	-5.5
2815.39	-21
2816.06	-29
2816.74	-12
2817.41	-13.5
2818.09	-12.5
2818.76	-7
2819.44	-8.5
2820.11	-22
2820.78	-18
2821.46	-13
2822.13	-11.5
2822.8	-23.5
2823.48	-27
2824.15	-13
2824.82	-17.5
2825.49	-12
2826.17	-17
2826.84	-17.5
2827.51	-16
2828.18	-27
2828.86	-16.5
2829.53	-16.5
2830.2	-19
2830.87	-31.5
2831.54	-11
2832.21	-19
2832.88	-20
2833.55	-14
2834.22	-24
2834.9	-19
2835.56	-36
2836.23	-19
2836.91	-19.5
2837.57	-29
2838.24	-14
2838.91	-18.5
2839.58	-13
2840.25	-19.5
2840.92	-7
2841.59	-16.5
2842.26	-34
2842.93	-47
2843.6	-17
2844.26	-13.5
2844.93	-17
2845.6	-25
2846.27	-13.5
2846.93	-13
2847.6	-23
2848.27	3.5
2848.94	-11
2849.6	-14
2850.27	-16.5
2850.94	0
2851.6	-9
2852.27	-23
2852.94	-11
2853.6	-16
2854.27	-9
2854.93	-13
2855.6	-8
2856.26	-9.5
2856.93	-29
2857.59	-17
2858.26	-25
2858.92	2
2859.59	-19
2860.25	-25
2860.92	-8
2861.58	-14
2862.24	-11
2862.91	-6
2863.57	-25
2864.23	-11
2864.9	-21.5
2865.56	-13.5
2866.22	-21
2866.89	-15.5
2867.55	-36
2868.21	-17
2868.87	-18.5
2869.54	-23
2870.2	-5.5
2870.86	-12
2871.52	-21
2872.18	-22
2872.84	-5
2873.51	-3.5
2874.17	-20
2874.83	-21
2875.49	-19
2876.15	-11
2876.81	-20
2877.47	-11
2878.13	-13
2878.79	-26
2879.45	-19
2880.11	-42
2880.77	-23
2881.43	-23
2882.09	-31
2882.75	-16
2883.4	-7.5
2884.06	-46
2884.72	-20
2885.38	-22.5
2886.04	-29
2886.7	-21.5
2887.35	-15.5
2888.01	-21
2888.67	-30.5
2889.33	-29.5
2889.98	-17.5
2890.64	-27
2891.3	-27
2891.95	-15
2892.61	-15
2893.27	-20
2893.92	-19.5
2894.58	-14
2895.23	-16
2895.89	-30
2896.55	-24
2897.2	-10.5
2897.86	-23
2898.51	-36
2899.17	-15
2899.82	-18
2900.48	-40
2901.13	-25
2901.79	-12
2902.44	-25
2903.09	-20.5
2903.75	-11
2904.4	-17
2905.05	-24
2905.71	-48
2906.36	-12.5
2907.01	-24
2907.67	-30
2908.32	-35
2908.97	-12
2909.63	-32
2910.28	-35
2910.93	-30.5
2911.58	-38
2912.23	-16
2912.88	-21
2913.54	-5.5
2914.19	-15.5
2914.84	-41
2915.49	-48
2916.14	-10
2916.79	-21
2917.44	-39
2918.09	-24.5
2918.74	-17.5
2919.39	-22
2920.04	-27
2920.69	-11.5
2921.34	-20.5
2921.99	-35
2922.64	-21.5
2923.29	-12.5
2923.94	-18.5
2924.59	-30
2925.23	-28
2925.88	-7.5
2926.53	-22
2927.18	-31
2927.83	-18.5
2928.48	-28.5
2929.12	-29
2929.77	-23
2930.42	-12
2931.07	-24
2931.71	-54
2932.36	-18.5
2933.01	-14
2933.65	-21.5
2934.3	-25
2934.95	-16
2935.59	-28.5
2936.24	-29
2936.88	-24.5
2937.53	-12.5
2938.17	-28
2938.82	-32
2939.46	-33.5
2940.11	-15
2940.75	-17
2941.4	-29.5
2942.04	-18.5
2942.69	-25
2943.33	-35
2943.98	-20.5
2944.62	-25.5
2945.26	-33
2945.91	-31.5
2946.55	-28.5
2947.19	-29
2947.84	-31
2948.48	-27.5
2949.12	-9
2949.76	-26
2950.41	-31.5
2951.05	-28.5
2951.69	-19
2952.33	-33
2952.98	-47
2953.62	-24
2954.26	-23.5
2954.9	-28
2955.54	-25
2956.18	-26.5
2956.82	-40
2957.46	-32.5
2958.1	-27
2958.74	-23.5
2959.38	-31
2960.02	-26
2960.66	-21.5
2961.3	-34
2961.94	-46
2962.58	-23
2963.22	-21.5
2963.86	-28
2964.5	-39
2965.14	-17.5
2965.78	-22.5
2966.42	-48
2967.05	-38
2967.69	-24
2968.33	-25
2968.97	-38
2969.61	-23
2970.24	-23.5
2970.88	-27
2971.52	-58.5
2972.15	-24
2972.79	-33
2973.43	-33.5
2974.06	-33
2974.7	-17.5
2975.34	-28
2975.97	-37
2976.61	-44.5
2977.24	-26
2977.88	-39
2978.52	-41
2979.15	-23
2979.79	-32
2980.42	-32
2981.06	-46
2981.69	-31.5
2982.32	-40
2982.96	-34
2983.59	-31
2984.23	-24.5
2984.86	-42
2985.49	-41.5
2986.13	-28
2986.76	-21.5
2987.39	-48
2988.03	-41
2988.66	-25.5
2989.29	-34
2989.93	-31
2990.56	-34
2991.19	-24.5
2991.82	-35
2992.45	-55
2993.09	-34
2993.72	-35
2994.35	-37.5
2994.98	-17.5
2995.61	-32
2996.24	-29
2996.87	-30
2997.5	-32.5
2998.14	-31
2998.77	-46
2999.4	-40.5
3000.03	-36.5
3000.66	-26
3001.29	-45
3001.91	-30.5
3002.54	-29
3003.17	-22.5
3003.8	-27
3004.43	-35.5
3005.06	-33.5
3005.69	-57
3006.32	-36
3006.95	-28
3007.57	-26
3008.2	-38.5
3008.83	-33
3009.46	-23
3010.08	-31
3010.71	-35
3011.34	-28
3011.97	-32.5
3012.59	-49
3013.22	-37
3013.85	-18
3014.47	-26
3015.1	-40
3015.72	-41
3016.35	-20.5
3016.98	-32.5
3017.6	-39
3018.23	-32.5
3018.85	-35
3019.48	-43
3020.1	-36
3020.73	-40
3021.35	-29
3021.98	-33.5
3022.6	-37
3023.23	-25
3023.85	-51
3024.47	-29.5
3025.1	-32
3025.72	-41.5
3026.34	-31
3026.97	-33.5
3027.59	-27
3028.21	-23.5
3028.84	-33
3029.46	-30
3030.08	-54
3030.7	-31
3031.32	-53
3031.95	-21
3032.57	-24
3033.19	-37
3033.81	-41
3034.43	-21
3035.05	-37.5
3035.68	-39
3036.3	-35
3036.92	-33
3037.54	-32
3038.16	-30.5
3038.78	-30
3039.4	-26
3040.02	-51
3040.64	-30.5
3041.26	-19.5
3041.88	-36
3042.5	-72
3043.12	-25.5
3043.73	-33
3044.35	-40
3044.97	-37
3045.59	-32
3046.21	-32.5
3046.83	-46.5
3047.44	-37.5
3048.06	-30.5
3048.68	-32
3049.3	-45
3049.92	-37
3050.53	-34.5
3051.15	-46
3051.77	-40
3052.38	-37
3053	-29.5
3053.62	-36.5
3054.23	-51.5
3054.85	-28
3055.46	-34
3056.08	-42
3056.7	-40
3057.31	-41
3057.93	-53
3058.54	-38.5
3059.16	-36
3059.77	-33
3060.39	-46
3061	-23.5
3061.61	-22.5
3062.23	-39
3062.84	-43
3063.46	-41
3064.07	-35.5
3064.68	-37
3065.3	-31.5
3065.91	-41
3066.52	-38
3067.14	-39
3067.75	-40
3068.36	-36
3068.98	-41
3069.59	-37
3070.2	-30.5
3070.81	-40
3071.42	-35
3072.04	-19.5
3072.65	-35
3073.26	-34.5
3073.87	-38
3074.48	-36
3075.09	-30
3075.7	-32
3076.31	-29
3076.92	-38.5
3077.53	-32
3078.14	-67
3078.75	-24.5
3079.36	-27
3079.97	-28.5
3080.58	-36
3081.19	-33
3081.8	-26
3082.41	-33
3083.02	-35.5
3083.63	-29
3084.24	-43
3084.84	-51
3085.45	-30
3086.06	-33
3086.67	-39
3087.28	-46
3087.88	-42.5
3088.49	-34
3089.1	-27.5
3089.71	-43.5
3090.31	-40
3090.92	-25
3091.53	-37
3092.13	-34
3092.74	-26
3093.34	-35.5
3093.95	-44
3094.56	-30
3095.16	-37
3095.77	-34
3096.37	-35
3096.98	-37.5
3097.58	-43
3098.19	-40
3098.79	-27.5
3099.4	-39.5
3100	-35
3100.61	-41.5
3101.21	-43
3101.81	-60
3102.42	-26
3103.02	-34
3103.63	-34
3104.23	-49
3104.83	-46
3105.43	-31
3106.04	-27.5
3106.64	-46
3107.24	-31
3107.85	-42
3108.45	-35.5
3109.05	-38
3109.65	-30
3110.25	-30
3110.86	-44
3111.46	-44
3112.06	-30
3112.66	-33.5
3113.26	-51
3113.86	-42
3114.46	-31
3115.06	-33.5
3115.66	-43
3116.26	-22.5
3116.86	-42
3117.46	-34
3118.06	-48
3118.66	-26
3119.26	-33
3119.86	-33.5
3120.46	-31
3121.06	-38
3121.66	-47
3122.26	-42
3122.85	-32
3123.45	-33.5
3124.05	-49
3124.65	-31
3125.25	-41
3125.84	-37.5
3126.44	-34
3127.04	-37
3127.64	-36.5
3128.23	-38
3128.83	-36
3129.43	-43.5
3130.02	-41
3130.62	-28
3131.22	-43
3131.81	-37
3132.41	-39
3133	-32
3133.6	-39
3134.19	-40
3134.79	-47
3135.39	-28
3135.98	-36
3136.58	-40
3137.17	-54
3137.76	-42
3138.36	-37.5
3138.95	-31.5
3139.55	-34
3140.14	-37
3140.73	-32.5
3141.33	-37.5
3141.92	-31
3142.51	-21
3143.11	-38
3143.7	-49
3144.29	-35.5
3144.89	-38.5
3145.48	-38
3146.07	-44
3146.66	-37
3147.26	-36
3147.85	-50
3148.44	-45
3149.03	-35
3149.62	-31
3150.21	-40
3150.8	-34
3151.39	-26
3151.99	-31.5
3152.58	-32
3153.17	-51.5
3153.76	-26
3154.35	-31
3154.94	-18
3155.53	-30
3156.12	-40
3156.71	-38
3157.29	-49
3157.88	-29
3158.47	-45.5
3159.06	-21
3159.65	-39
3160.24	-38.5
3160.83	-39
3161.42	-34
3162	-26.5
3162.59	-33.5
3163.18	-33
3163.77	-32
3164.35	-20
3164.94	-43
3165.53	-42
3166.12	-41.5
3166.7	-34
3167.29	-31.5
3167.88	-42
3168.46	-25.5
3169.05	-35
3169.64	-41
3170.22	-28
3170.81	-29
3171.39	-45
3171.98	-23
3172.56	-26
3173.15	-30.5
3173.73	-38
3174.32	-32.5
3174.9	-45
3175.49	-29
3176.07	-57
3176.65	-43
3177.24	-25.5
3177.82	-32.5
3178.41	-36
3178.99	-30
3179.57	-33.5
3180.16	-49
3180.74	-43.5
3181.32	-32.5
3181.91	-38
3182.49	-58
3183.07	-29.5
3183.65	-32
3184.23	-25
3184.82	-41
3185.4	-37
3185.98	-36
3186.56	-46
3187.14	-28
3187.72	-28.5
3188.3	-25
3188.89	-47
3189.47	-30.5
3190.05	-34.5
3190.63	-51
3191.21	-29
3191.79	-35
3192.37	-58
3192.95	-43
3193.53	-28.5
3194.11	-41.5
3194.69	-36
3195.26	-40
3195.84	-58
3196.42	-30.5
3197	-54
3197.58	-22.5
3198.16	-23
3198.74	-46.5
3199.31	-35.5
3199.89	-31.5
