100.582	425.5
101.867	414
103.152	410
104.437	398
105.721	396
107.004	397
108.287	373
109.571	371.5
110.853	349
112.136	356
113.418	357
114.7	347
115.981	347
117.262	339
118.543	326.5
119.823	341.5
121.103	347.5
122.383	359
123.663	340.5
124.942	341
126.221	346.5
127.499	322.5
128.777	294
130.056	330
131.333	324.5
132.61	315
133.887	309
135.163	317.5
136.439	331
137.715	317
138.992	303
140.267	280
141.541	276
142.816	260
144.09	282
145.364	259
146.637	261
147.911	253
149.184	249
150.457	262
151.729	243.5
153.001	245.5
154.273	248.5
155.544	237
156.815	219
158.086	230.5
159.356	242.5
160.626	220
161.896	203.5
163.165	228
164.434	219.5
165.703	199
166.971	197.5
168.24	184.5
169.507	165
170.774	168
172.042	189
173.309	175
174.575	177
175.841	168
177.107	182
178.373	170
179.637	152
180.902	175
182.167	168
183.431	150
184.695	159
185.958	166
187.222	160.5
188.485	142
189.747	144
191.009	160.5
192.272	153
193.534	154
194.795	151
196.055	156.5
197.316	146
198.577	143.5
199.837	160.5
201.096	169
202.356	136
203.615	162.5
204.873	132.5
206.132	160
207.39	139
208.648	154.5
209.905	145
211.162	127
212.419	132
213.675	131
214.932	144
216.187	133
217.443	137
218.697	136
219.953	128
221.207	126
222.462	131
223.715	127.5
224.969	125
226.222	124
227.475	125.5
228.727	118
229.98	121
231.232	128
232.483	142.5
233.734	137.5
234.986	136
236.236	131
237.486	141
238.737	135
239.986	124.5
241.235	141
242.484	140
243.733	152
244.981	160
246.229	180.5
247.477	193
248.725	189
249.971	196
251.219	209
252.465	168
253.711	140
254.957	136
256.203	133
257.448	138
258.693	132
259.937	150.5
261.181	127
262.425	128.5
263.669	132.5
264.912	115
266.155	99
267.398	107
268.64	98
269.881	102
271.123	121
272.364	105
273.605	108.5
274.846	95
276.086	86
277.326	124.5
278.566	91.5
279.806	106
281.045	97
282.283	97.5
283.522	112
284.76	103
285.998	104
287.235	95
288.473	76
289.71	91
290.946	109
292.182	89
293.418	80.5
294.654	97.5
295.888	90.5
297.123	84.5
298.358	72
299.592	99
300.826	100
302.06	86
303.293	84
304.526	94.5
305.759	96.5
306.991	91
308.223	74.5
309.455	84.5
310.687	84
311.917	79
313.148	82.5
314.379	89.5
315.609	84
316.839	73
318.068	93.5
319.297	80
320.526	61
321.754	62
322.982	74
324.21	79
325.438	67
326.665	76
327.892	85
329.118	63
330.345	73
331.571	90.5
332.797	77.5
334.022	40
335.247	67.5
336.471	83.5
337.696	78
338.92	69.5
340.144	68
341.367	67.5
342.591	64
343.813	70
345.036	62
346.257	54.5
347.48	74
348.701	60
349.922	69.5
351.143	60.5
352.363	50
353.583	72.5
354.803	58
356.023	55
357.243	63.5
358.462	72.5
359.68	71
360.899	45
362.117	59
363.334	68
364.551	66
365.769	59.5
366.986	65.5
368.202	52.5
369.418	49
370.633	54
371.849	64
373.065	54.5
374.279	61
375.494	53.5
376.708	59
377.921	77
379.136	49
380.349	59
381.562	55
382.774	46
383.987	47
385.198	70
386.41	40
387.621	41
388.832	51.5
390.043	46
391.253	52
392.463	34
393.674	58
394.883	56.5
396.092	50.5
397.301	52
398.509	65
399.717	57.5
400.925	50
402.133	47.5
403.34	56
404.547	44
405.753	48
406.96	41
408.165	55.5
409.371	36
410.576	54
411.781	55
412.986	48
414.191	42.5
415.394	38
416.598	52.5
417.802	63
419.005	42
420.208	45
421.41	36
422.613	43
423.815	47.5
425.016	52
426.217	43
427.418	39.5
428.619	47
429.818	50.5
431.019	27
432.218	45.5
433.418	64
434.617	30
435.815	31
437.014	47.5
438.212	38
439.41	38
440.607	31.5
441.805	39.5
443.001	51.5
444.198	34
445.394	32
446.59	32.5
447.785	46.5
448.98	38
450.175	37
451.37	41
452.564	37
453.758	33
454.952	42.5
456.145	37
457.339	24
458.531	34
459.724	25
460.916	33.5
462.107	37.5
463.299	40.5
464.49	27
465.681	25
466.871	26
468.062	48
469.252	16
470.441	35.5
471.631	36.5
472.819	28
474.008	18
475.196	20
476.385	35.5
477.572	34
478.76	33
479.946	24
481.133	35.5
482.32	30
483.506	38
484.692	33
485.877	19.5
487.063	24.5
488.247	15
489.432	39.5
490.616	42
491.8	25.5
492.984	31
494.167	33.5
495.35	19.5
496.533	23.5
497.715	36
498.897	25
500.079	16
501.26	16
502.441	41.5
503.622	21
504.803	35.5
505.983	38.5
507.163	30
508.342	18.5
509.522	39.5
510.701	31.5
511.88	25
513.058	21.5
514.236	31
515.413	30.5
516.591	29.5
517.768	15.5
518.945	35.5
520.121	30.5
521.297	25
522.473	18
523.648	35
524.823	25
525.998	26.5
527.173	30
528.348	34.5
529.522	6
530.694	29
531.868	14
533.041	29
534.214	27
535.386	23
536.558	30
537.731	27.5
538.902	28.5
540.073	22
541.244	13.5
542.414	19.5
543.585	15
544.754	21
545.924	25
547.094	24
548.262	14
549.431	26.5
550.6	10.5
551.767	14
552.935	20
554.103	15
555.27	22
556.436	2
557.603	13.5
558.769	18
559.935	4
561.1	3
562.266	28.5
563.431	14.5
564.595	25
565.759	38
566.924	33.5
568.087	21
569.25	28
570.414	13.5
571.576	19
572.739	8
573.901	21.5
575.062	29.5
576.224	22
577.385	7
578.546	18.5
579.707	31.5
580.867	25.5
582.028	19.5
583.187	27.5
584.347	12
585.505	12.5
586.664	13.5
587.822	26.5
588.98	15.5
590.138	18
591.296	22
592.453	21
593.61	24
594.767	17
595.922	26.5
597.079	29
598.234	11
599.39	1
600.544	33
601.699	27
602.854	22
604.008	22
605.161	18.5
606.315	23
607.468	21.5
608.621	10
609.774	8.5
610.926	11
612.078	13
613.229	9
614.381	9
615.532	14.5
616.682	11
617.833	16.5
618.983	18
620.133	8
621.282	10
622.431	8.5
623.58	10.5
624.729	9.5
625.877	20
627.025	3.5
628.172	-3
629.32	13
630.467	8.5
631.614	15
632.76	9.5
633.906	19.5
635.052	15.5
636.197	-4
637.343	13
638.488	15.5
639.632	10
640.776	-6
641.92	7
643.064	12
644.207	-2
645.35	14
646.493	15.5
647.635	0
648.777	6
649.919	17.5
651.06	12
652.202	6.5
653.342	-2
654.483	16.5
655.624	22
656.764	-12
657.903	6.5
659.043	0.5
660.181	11.5
661.32	3
662.459	11
663.596	10
664.735	12
665.872	-4
667.009	16
668.146	5.5
669.282	3
670.419	5
671.555	9.5
672.69	14.5
673.826	4.5
674.96	6.5
676.096	3
677.23	13
678.364	11.5
679.498	9
680.631	6
681.765	9
682.897	5.5
684.03	8
685.163	12.5
686.294	4
687.426	8
688.557	9
689.689	8
690.819	3
691.949	21
693.079	5.5
694.21	20
695.339	13
696.468	16
697.597	-2
698.725	10.5
699.854	11.5
700.982	10.5
702.11	8.5
703.237	-2
704.364	23.5
705.491	15
706.617	18
707.744	9.5
708.87	14
709.995	-3
711.12	4.5
712.245	14.5
713.37	18
714.495	8
715.618	19.5
716.742	26
717.865	30
718.989	20
720.112	8
721.234	1
722.356	18
723.478	5.5
724.6	12
725.721	22
726.842	3
727.962	18
729.083	26
730.203	10.5
731.323	12.5
732.442	9.5
733.562	4.5
734.681	6.5
735.799	2.5
736.917	9
738.036	21.5
739.153	-10
740.27	12
741.387	17.5
742.505	18
743.62	1
744.736	15
745.853	8
746.968	-3
748.083	7.5
749.199	2.5
750.313	9.5
751.427	-4
752.541	8
753.655	12
754.768	-9
755.882	-13
756.994	0
758.107	14
759.219	0
760.331	8
761.443	13
762.554	9
763.665	-5
764.776	6
765.885	18
766.996	0
768.106	12
769.215	16.5
770.324	10
771.434	-5
772.542	6
773.65	17
774.758	7.5
775.865	14.5
776.973	5.5
778.081	6
779.187	14
780.293	-8
781.399	11.5
782.506	6
783.611	11.5
784.716	-10
785.821	12
786.926	2
788.03	4
789.134	3.5
790.238	12
791.341	7.5
792.444	13
793.547	14.5
794.65	6
795.752	-2
796.854	0.5
797.956	-0.5
799.057	-4.5
800.158	16
801.259	17
802.359	5.5
803.459	11.5
804.559	18.5
805.659	10.5
806.758	4.5
807.857	2.5
808.955	8.5
810.053	10.5
811.152	8
812.25	3
813.347	5
814.444	25
815.541	10.5
816.638	-0.5
817.733	22
818.83	-2
819.925	-4
821.02	19
822.115	20.5
823.21	16.5
824.305	10
825.398	25
826.492	30
827.586	23
828.679	10
829.772	35.5
830.865	20.5
831.957	28
833.049	24
834.141	44.5
835.232	30.5
836.323	46.5
837.414	43.5
838.505	46
839.595	22.5
840.685	29.5
841.774	40
842.864	34
843.952	19
845.041	32
846.129	33
847.218	31
848.306	36
849.393	22.5
850.48	22.5
851.567	28
852.654	36.5
853.74	35.5
854.826	10.5
855.912	23
856.997	28.5
858.082	30
859.167	26
860.252	22.5
861.336	23
862.42	32
863.504	27
864.587	34.5
865.67	40
866.753	28
867.835	25
868.917	37
869.999	28.5
871.081	23
872.162	24
873.243	36.5
874.323	19
875.404	27
876.484	35
877.564	47
878.643	20
879.722	25
880.802	25
881.88	27
882.958	11.5
884.036	33
885.113	34
886.191	20
887.268	24
888.344	32
889.421	36.5
890.498	26
891.573	11.5
892.649	20
893.724	26.5
894.799	12
895.874	19.5
896.948	26
898.022	34
899.096	12
900.17	19
901.243	29.5
902.315	10
903.389	19
904.461	31
905.533	31
906.605	15
907.676	25
908.747	35.5
909.818	25
910.888	28.5
911.958	24.5
913.028	35
914.098	25
915.167	25.5
916.237	26
917.306	26.5
918.374	12
919.442	23.5
920.51	32.5
921.577	28
922.644	17
923.711	12.5
924.778	20.5
925.845	7
926.911	19
927.977	24
929.042	14.5
930.107	1
931.173	24
932.237	21
933.301	11.5
934.365	8
935.429	39.5
936.492	21
937.556	15
938.619	9
939.681	28
940.743	19.5
941.805	11
942.867	17
943.928	17
944.989	11
946.05	13.5
947.11	17
948.17	26.5
949.23	16
950.29	14.5
951.349	10
952.409	18
953.467	10
954.526	27
955.584	15.5
956.641	20
957.699	10.5
958.756	29
959.813	14
960.869	8.5
961.926	11
962.982	28
964.038	13
965.094	11
966.149	14
967.204	25
968.258	15
969.312	20.5
970.366	26
971.42	17
972.473	10
973.527	12.5
974.58	21
975.631	12.5
976.684	0
977.736	18
978.787	19.5
979.839	16.5
980.89	9.5
981.94	12
982.991	13
984.041	11
985.091	8.5
986.141	7.5
987.19	-0.5
988.239	-6.5
989.288	13
990.336	12
991.384	2
992.432	12
993.48	14
994.527	12.5
995.574	-4
996.62	-5
997.666	6
998.713	1.5
999.759	4
1000.8	14
1001.85	7.5
1002.89	8
1003.94	15
1004.98	24
1006.03	13
1007.07	9.5
1008.11	4
1009.16	-2
1010.2	6
1011.24	6
1012.29	6.5
1013.33	16.5
1014.37	6
1015.41	-2.5
1016.45	12
1017.49	25
1018.53	-4
1019.57	13.5
1020.61	18
1021.65	7
1022.69	8
1023.73	13.5
1024.77	8.5
1025.81	-2
1026.85	2.5
1027.88	14.5
1028.92	13
1029.96	8
1031	5
1032.03	4
1033.07	15.5
1034.1	23.5
1035.14	6
1036.18	9
1037.21	15.5
1038.25	-0.5
1039.28	22.5
1040.32	5.5
1041.35	5
1042.38	15
1043.42	10
1044.45	15
1045.48	6
1046.52	15
1047.55	9.5
1048.58	8.5
1049.61	8
1050.64	19.5
1051.67	2
1052.71	-10
1053.74	14
1054.77	10.5
1055.8	18
1056.83	7
1057.85	23
1058.88	18
1059.91	12
1060.94	22.5
1061.97	34
1063	25
1064.03	17
1065.05	20
1066.08	14.5
1067.11	25
1068.13	22
1069.16	29
1070.19	27.5
1071.21	29.5
1072.24	38
1073.26	22
1074.29	28
1075.31	20
1076.34	15.5
1077.36	21
1078.38	21.5
1079.41	28
1080.43	36
1081.45	23.5
1082.47	24
1083.5	24.5
1084.52	29.5
1085.54	22
1086.56	19
1087.58	28
1088.6	29
1089.62	20.5
1090.64	26.5
1091.66	22
1092.68	6
1093.7	17
1094.72	-2
1095.74	23
1096.76	15
1097.78	13
1098.79	14.5
1099.81	11.5
1100.83	13.5
1101.85	21
1102.86	2
1103.88	19
1104.9	19
1105.91	22.5
1106.93	18
1107.94	15
1108.96	1
1109.97	18
1110.99	-2
1112	7
1113.01	10.5
1114.03	5.5
1115.04	6
1116.05	4
1117.07	9
1118.08	7.5
1119.09	-9
1120.1	4
1121.11	16.5
1122.13	11
1123.14	4
1124.15	2.5
1125.16	1.5
1126.17	2
1127.18	5
1128.19	14
1129.2	2
1130.2	-7
1131.21	4.5
1132.22	-6.5
1133.23	6
1134.24	-11
1135.25	-7
1136.25	2.5
1137.26	2.5
1138.27	-6.5
1139.27	4
1140.28	5
1141.28	7
1142.29	1
1143.29	6
1144.3	-5
1145.3	0.5
1146.31	7
1147.31	-9
1148.32	-15
1149.32	-1.39286
1150.32	-6.70711
1151.33	-0.868633
1152.33	-6.46994
1153.33	2.40028
1154.33	-3.39088
1155.33	-7.42785
1156.34	9.91895
1157.34	1.38948
1158.34	3.06967
1159.34	-6.59798
1160.34	14.454
1161.34	2.33043
1162.34	1.13553
1163.34	-1.33226
1164.34	-0.13454
1165.34	-8.75084
1166.33	5.69323
1167.33	4.0941
1168.33	8.53778
1169.33	-1.58488
1170.33	-12.2573
1171.32	0.15733
1172.32	3.85438
1173.32	-10.9341
1174.31	0.660677
1175.31	-2.34551
1176.31	3.27452
1177.3	0.728742
1178.3	1.40329
1179.29	13.45
1180.29	-0.553095
1181.28	-2.86766
1182.27	1.57381
1183.27	4.47976
1184.26	-1.05749
1185.25	-3.38118
1186.25	1.47217
1187.24	2.97785
1188.23	7.52888
1189.22	3.52668
1190.22	1.51386
1191.21	-3.29452
1192.2	-3.6077
1193.19	-0.00432884
1194.18	4.65674
1195.17	4.5758
1196.16	4.42278
1197.15	10.6422
1198.14	-3.54332
1199.13	0.815162
1200.12	3.49048
1201.11	3.34261
1202.09	-1.02551
1203.08	5.0176
1204.07	9.18655
1205.06	-2.21447
1206.04	6.39823
1207.03	-0.177129
1208.02	6.76577
1209	-5.71194
1209.99	2.85636
1210.98	-3.9285
1211.96	1.71766
1212.95	-1.21717
1213.93	-6.16573
1214.92	2.64511
1215.9	4.89397
1216.89	9.71019
1217.87	3.99805
1218.85	-0.256893
1219.84	6.64327
1220.82	9.96286
1221.8	7.67484
1222.78	9.91091
1223.77	6.54718
1224.75	14.8127
1225.73	12.6958
1226.71	17.7042
1227.69	7.46413
1228.67	18.7019
1229.65	13.8508
1230.63	8.93235
1231.61	-0.897953
1232.59	19.0119
1233.57	12.4444
1234.55	19.9763
1235.53	0.0623673
1236.51	23.5468
1237.49	24.4231
1238.46	20.6888
1239.44	25.078
1240.42	18.8788
1241.4	23.4835
1242.37	19.7466
1243.35	20.8214
1244.32	29.9493
1245.3	27.8665
1246.28	24.047
1247.25	33.0174
1248.23	33.5189
1249.2	32.6608
1250.18	38.25
1251.15	38.7714
1252.12	38.723
1252.72	38.5
1253.73	35.5
1254.74	43
1255.75	39
1256.75	62.5
1257.76	41.5
1258.77	53
1259.78	53.5
1260.79	41
1261.79	52
1262.8	58.5
1263.81	60.5
1264.81	55.5
1265.82	53
1266.82	45
1267.83	45.5
1268.83	47
1269.84	38
1270.84	54
1271.85	36
1272.85	39
1273.86	49
1274.86	40
1275.86	46
1276.87	47
1277.87	29
1278.87	46
1279.88	28
1280.88	51.5
1281.88	31
1282.88	22.5
1283.88	34
1284.88	32
1285.88	32
1286.89	34
1287.89	36
1288.89	30
1289.89	40
1290.89	29.5
1291.89	28
1292.88	38.5
1293.88	37
1294.88	42.5
1295.88	50
1296.88	41
1297.88	47
1298.88	65
1299.87	59
1300.87	49
1301.87	56
1302.86	51
1303.86	55.5
1304.86	36.5
1305.85	53
1306.85	38
1307.85	43.5
1308.84	41.5
1309.84	41
1310.83	46.5
1311.83	36.5
1312.82	37.5
1313.81	29
1314.81	27.5
1315.8	30
1316.8	40
1317.79	40
1318.78	27
1319.77	22.5
1320.77	32
1321.76	34.5
1322.75	19.5
1323.74	30
1324.73	34
1325.72	44.5
1326.72	20.5
1327.71	10
1328.7	36
1329.69	19
1330.68	19
1331.67	16
1332.66	1
1333.65	15
1334.63	15
1335.62	15
1336.61	19.5
1337.6	17
1338.59	11
1339.58	21
1340.56	19
1341.55	16
1342.54	7
1343.53	25
1344.51	8
1345.5	13
1346.48	16.5
1347.47	14
1348.45	18.5
1349.44	22
1350.43	30
1351.41	9.5
1352.4	7
1353.38	24
1354.36	23
1355.35	13
1356.33	0
1357.31	32
1358.3	16.5
1359.28	9.5
1360.26	36.5
1361.25	16
1362.23	-0.5
1363.21	21
1364.19	29
1365.17	17.5
1366.15	15.5
1367.14	17
1368.12	0
1369.1	13
1370.08	21.5
1371.06	17
1372.04	5.5
1373.02	13
1373.99	10
1374.97	11
1375.95	18
1376.93	9
1377.91	15
1378.89	15
1379.86	4.5
1380.84	17
1381.82	1
1382.8	13
1383.77	-1
1384.75	12
1385.73	-18
1386.7	24
1387.68	-4.5
1388.65	19
1389.63	13
1390.6	11.5
1391.58	13
1392.55	14
1393.53	5.5
1394.5	6.5
1395.48	4
1396.45	13.5
1397.42	20
1398.4	3.5
1399.37	17.5
1400.34	2
1401.31	-5
1402.29	13.5
1403.26	5
1404.23	15.5
1405.2	1
1406.17	7
1407.14	8
1408.11	8
1409.08	11
1410.05	11
1411.02	3.5
1411.99	8
1412.96	11.5
1413.93	13
1414.9	14
1415.87	12.5
1416.84	13
1417.81	19
1418.78	9.5
1419.74	15.5
1420.71	10
1421.68	15.5
1422.65	17.5
1423.61	21.5
1424.58	24
1425.55	19
1426.51	20.5
1427.48	9
1428.44	23
1429.41	30
1430.37	45.5
1431.34	29
1432.3	42.5
1433.27	54.5
1434.23	45
1435.2	75
1436.16	66.5
1437.12	68
1438.09	51
1439.05	65.5
1440.01	64
1440.97	56
1441.94	51
1442.9	62
1443.86	39.5
1444.82	34
1445.78	46
1446.74	28.5
1447.7	48
1448.67	30
1449.63	42.5
1450.59	27
1451.55	32
1452.5	24
1453.46	40.5
1454.42	20
1455.38	30
1456.34	24
1457.3	28.5
1458.26	13.5
1459.21	23
1460.17	19
1461.13	29
1462.09	25
1463.04	10
1464	17
1464.96	20.5
1465.91	10
1466.87	1
1467.82	7
1468.78	5
1469.73	8
1470.69	2
1471.64	-6.5
1472.6	9
1473.55	2
1474.51	1
1475.46	-3
1476.41	-4
1477.37	-8
1478.32	-18.5
1479.27	-1
1480.23	-24
1481.18	2
1482.13	-8
1483.08	-2
1484.03	-8
1484.98	-13
1485.94	-1.5
1486.89	-1
1487.84	-1
1488.79	-12.5
1489.74	-15.5
1490.69	-22
1491.64	-5
1492.59	-8
1493.54	-9
1494.48	-2
1495.43	-0.5
1496.38	-15
1497.33	-8
1498.28	-5.5
1499.23	-21.5
1500.17	5.5
1501.12	-25
1502.07	-3.5
1503.01	-8
1503.96	-7
1504.91	-19
1505.85	-14
1506.8	-6
1507.74	-20
1508.69	-12.5
1509.64	-27
1510.58	-27.5
1511.52	-6
1512.47	-13.5
1513.41	-12.5
1514.36	-13
1515.3	-14
1516.24	-7.5
1517.19	-20
1518.13	-15
1519.07	-7
1520.01	-15
1520.96	-7
1521.9	-37
1522.84	-8
1523.78	-9.5
1524.72	-7
1525.66	-2.5
1526.6	-19
1527.55	-18
1528.49	-6
1529.43	-9.5
1530.37	-10
1531.3	-14
1532.24	-37
1533.18	-31.5
1534.12	-7
1535.06	-34
1536	-11
1536.94	-16
1537.88	-14
1538.81	-20
1539.75	-6
1540.69	-14
1541.62	-25
1542.56	-35
1543.5	-10
1544.43	-14
1545.37	-23
1546.3	-11
1547.24	-17.5
1548.18	-13
1549.11	-9
1550.05	-15.5
1550.98	-8
1551.91	-5
1552.85	-15.5
1553.78	-39.5
1554.72	-15
1555.65	-14.5
1556.58	-13
1557.51	-21
1558.45	-10
1559.38	-34
1560.31	-19
1561.24	-28
1562.17	-16
1563.11	-21
1564.04	-25
1564.97	-22
1565.9	-25
1566.83	-26
1567.76	-20
1568.69	-18
1569.62	-15
1570.55	-18.5
1571.48	-15
1572.41	-5
1573.34	-23
1574.26	-14.5
1575.19	-5
1576.12	-17
1577.05	-22
1577.98	-17.5
1578.9	-15.5
1579.83	-22
1580.76	-21.5
1581.68	-18
1582.61	-15
1583.54	-23
1584.46	-24
1585.39	-27
1586.31	-13
1587.24	-12
1588.16	-27
1589.09	-18
1590.01	-14
1590.94	-3
1591.86	-23.5
1592.78	-31
1593.71	-17
1594.63	-25.5
1595.55	-8
1596.48	-27
1597.4	-20
1598.32	-15
1599.24	-34
1600.17	-10
1601.09	-15.5
1602.01	-16.5
1602.93	0
1603.85	-9.5
1604.77	-39
1605.69	-5.5
1606.61	-23
1607.53	-26
1608.45	-25
1609.37	-22
1610.29	-3
1611.21	-13.5
1612.13	-26
1613.05	-38
1613.96	-16.5
1614.88	-25
1615.8	-7
1616.72	-19
1617.63	-22.5
1618.55	-24
1619.47	-9
1620.38	-23
1621.3	-21.5
1622.22	-16.5
1623.13	-23
1624.05	-24
1624.96	-27.5
1625.88	-13
1626.79	-17
1627.71	-12
1628.62	-7
1629.54	-6
1630.45	-30
1631.37	-16
1632.28	-9.5
1633.19	-14
1634.1	-3.5
1635.02	-22
1635.93	-13
1636.84	-5
1637.75	-18.5
1638.67	-14
1639.58	-18
1640.49	-7
1641.4	-14.5
1642.31	-7.5
1643.22	-17
1644.13	4.5
1645.04	-7
1645.95	6
1646.86	12
1647.77	-2.5
1648.68	-1
1649.59	16
1650.5	25
1651.41	12
1652.31	31.5
1653.22	27
1654.13	26
1655.04	27.5
1655.95	41
1656.85	34
1657.76	42.5
1658.67	30
1659.57	18
1660.48	29.5
1661.38	1.5
1662.29	10
1663.2	1
1664.1	13
1665.01	3.5
1665.91	-18
1666.81	-12
1667.72	-11.5
1668.62	-15.5
1669.53	-13
1670.43	-3.5
1671.33	-26
1672.24	-6
1673.14	-39
1674.04	-19.5
1674.94	-28
1675.85	-18.5
1676.75	-25
1677.65	-11
1678.55	-28
1679.45	-21
1680.35	-15.5
1681.25	-20.5
1682.15	-12
1683.05	-31
1683.95	-25
1684.85	-26.5
1685.75	-40
1686.65	-22
1687.55	-18
1688.45	-12
1689.35	-40
1690.25	-15
1691.15	-15
1692.04	-14
1692.94	-33
1693.84	-38
1694.74	-22
1695.63	-6.5
1696.53	-21
1697.43	-24
1698.32	-37
1699.22	-29
1700.11	-25
1701.01	-33.5
1701.9	-16
1702.8	-23
1703.69	-24.5
1704.59	-15
1705.48	-22
1706.38	-38
1707.27	-19.5
1708.16	-22.5
1709.06	-23
1709.95	-14
1710.84	-30.5
1711.74	-17
1712.63	-34
1713.52	-30
1714.41	-20.5
1715.3	-28
1716.2	-23
1717.09	-25
1717.98	-23
1718.87	-31
1719.76	-19.5
1720.65	-26.5
1721.54	-20
1722.43	-12.5
1723.32	-13
1724.21	-30.5
1725.1	-24
1725.99	-32
1726.88	-31.5
1727.76	-26.5
1728.65	-24
1729.54	-25.5
1730.43	-13
1731.31	-18
1732.2	-20
1733.09	-14.5
1733.98	-30.5
1734.86	-19
1735.75	-4
1736.63	-23.5
1737.52	-4
1738.41	-9.5
1739.29	-29
1740.18	-15
1741.06	-14
1741.95	-9
1742.83	-35
1743.72	-16.5
1744.6	-19
1745.48	-23
1746.37	-18
1747.25	-10
1748.13	-29
1749.02	-26
1749.9	-16
1750.78	-40
1751.66	-17
1752.54	-17
1753.43	-11.5
1754.31	-6.5
1755.19	-19.5
1756.07	-21
1756.95	-19
1757.83	-26
1758.71	-17.5
1759.59	-15.5
1760.47	-25
1761.35	-10.5
1762.23	-35
1763.11	-45
1763.99	-26
1764.87	-24.5
1765.74	-31.5
1766.62	-16
1767.5	-13.5
1768.38	-23
1769.25	-20.5
1770.13	-28
1771.01	-20
1771.89	-24
1772.76	-29
1773.64	-26
1774.51	-24
1775.39	-29.5
1776.27	-20
1777.14	-37
1778.02	-22.5
1778.89	-35.5
1779.76	-19
1780.64	-29
1781.51	-35
1782.39	-37.5
1783.26	-30
1784.13	-24.5
1785.01	-22
1785.88	-38
1786.75	-27
1787.63	-23
1788.5	-24.5
1789.37	-14
1790.24	-31
1791.11	-23
1791.98	-15
1792.86	-31
1793.73	-19
1794.6	-31.5
1795.47	-27
1796.34	-30.5
1797.21	-25
1798.08	-38
1798.95	-8
1799.82	-18.5
1800.68	-25
1801.55	-26
1802.42	-19.5
1803.29	-29.5
1804.16	-24
1805.03	-33
1805.89	-23.5
1806.76	-35
1807.63	-29
1808.49	-12
1809.36	-19
1810.23	-29
1811.09	-23
1811.96	-25
1812.83	-23.5
1813.69	-29.5
1814.56	-21
1815.42	-36
1816.29	-28.5
1817.15	-22
1818.02	-29
1818.88	-15.5
1819.74	-38
1820.61	-21
1821.47	-34
1822.33	-27
1823.2	-41
1824.06	-15.5
1824.92	-17.5
1825.78	-27.5
1826.65	-22.5
1827.51	-20
1828.37	-26
1829.23	-23
1830.09	-26
1830.95	-20
1831.81	-19.5
1832.67	-28
1833.53	-25
1834.39	-11.5
1835.25	-25
1836.11	-16
1836.97	-32
1837.83	-11
1838.69	-30
1839.55	-33.5
1840.41	-15.5
1841.26	-30
1842.12	-31.5
1842.98	-32
1843.84	-26
1844.69	-33.5
1845.55	-19
1846.41	-22
1847.26	-23
1848.12	-27.5
1848.98	-35
1849.83	-30
1850.69	-28.5
1851.54	-28.5
1852.4	-13
1853.25	-18
1854.11	-25
1854.96	-40
1855.82	-22
1856.67	-24
1857.52	-28
1858.38	-36
1859.23	-25
1860.08	-26
1860.93	-35
1861.79	-43
1862.64	-23
1863.49	-21
1864.34	-34
1865.19	-20
1866.05	-34
1866.9	-36.5
1867.75	-26
1868.6	-21
1869.45	-18
1870.3	-30
1871.15	-26
1872	-20.5
1872.85	-32
1873.7	-24
1874.55	-13.5
1875.4	-24
1876.24	-35
1877.09	-21
1877.94	-24
1878.79	-23
1879.64	-34
1880.48	-33
1881.33	-26
1882.18	-26
1883.02	-24
1883.87	-25
1884.72	-32
1885.56	-36
1886.41	-31
1887.25	-10
1888.1	-23.5
1888.94	-18
1889.79	-24
1890.63	-37.5
1891.48	-20
1892.32	-23
1893.17	-13
1894.01	-17
1894.85	-26
1895.7	-33
1896.54	-34
1897.38	-41
1898.23	-21.5
1899.07	-27
1899.91	-30
1900.75	-33.5
1901.59	-21
1902.44	-18.5
1903.28	-25
1904.12	-37
1904.96	-29
1905.8	-27
1906.64	-17
1907.48	-35
1908.32	-27
1909.16	-25
1910	-28
1910.84	-34
1911.68	-18.5
1912.51	-16
1913.35	-22
1914.19	-20.5
1915.03	-13
1915.87	-35.5
1916.7	-34.5
1917.54	-26.5
1918.38	-30.5
1919.21	-26
1920.05	-23
1920.89	-19.5
1921.72	-36
1922.56	-29
1923.4	-21
1924.23	-23
1925.07	-34.5
1925.9	-33.5
1926.74	-23.5
1927.57	-29
1928.41	-29.5
1929.24	-36
1930.07	-28.5
1930.91	-29
1931.74	-31
1932.57	-35
1933.41	-6
1934.24	-22.5
1935.07	-26.5
1935.9	-18
1936.74	-32
1937.57	-22
1938.4	-19.5
1939.23	-23.5
1940.06	-21.5
1940.89	-25
1941.72	-33
1942.55	-19.5
1943.38	-31
1944.21	-31
1945.04	-31
1945.87	-40.5
1946.7	-12
1947.53	-34
1948.36	-15.5
1949.19	-20
1950.02	-38
1950.84	-40.5
1951.67	-19
1952.5	-37
1953.33	-35
1954.15	-27
1954.98	-20.5
1955.81	-22.5
1956.64	-35
1957.46	-24.5
1958.29	-26
1959.11	-34
1959.94	-30
1960.76	-28
1961.59	-41
1962.41	-43
1963.24	-26
1964.06	-25.5
1964.89	-23
1965.71	-23
1966.53	-26
1967.36	-30
1968.18	-49
1969	-28
1969.83	-23
1970.65	-30
1971.47	-19.5
1972.3	-23.5
1973.12	-34.5
1973.94	-39
1974.76	-29
1975.58	-19
1976.4	-23
1977.22	-40
1978.04	-25
1978.86	-31.5
1979.68	-30
1980.5	-39
1981.32	-38
1982.14	-28
1982.96	-21
1983.78	-29
1984.6	-34.5
1985.42	-19.5
1986.24	-35
1987.06	-23
1987.87	-25
1988.69	-25.5
1989.51	-20
1990.32	-30
1991.14	-23
1991.96	-27
1992.78	-19
1993.59	-42.5
1994.41	-28
1995.22	-36
1996.04	-33.5
1996.85	-26.5
1997.67	-46.8357
1998.48	-31.755
1999.3	-20.3045
2000.11	-28.4622
2000.93	-22.6424
2001.74	-23.0727
2002.56	-29.2092
2003.37	-19.5971
2004.18	-26.1513
2004.99	-22.2337
2005.81	-16.0188
2006.62	-29.9499
2007.43	-40.4629
2008.25	-21.006
2009.06	-25.9666
2009.87	-27.944
2010.68	-13.3877
2011.49	-36.3871
2012.3	-27.5766
2013.11	-33.4793
2013.92	-34.431
2014.73	-26.1493
2015.54	-28.6845
2016.35	-24.009
2017.16	-27.8455
2017.97	-17.1897
2018.78	-24.8279
2019.59	-23.5468
2020.4	-25.1682
2021.21	-28.9429
2022.02	-41.0903
2022.83	-29.2056
2023.63	-21.1902
2024.44	-25.2211
2025.25	-33.6916
2026.06	-31.7013
2026.86	-24.8624
2027.67	-21.9113
2028.48	-26.7972
2029.28	-33.1843
2030.09	-14.3793
2030.89	-25.4432
2031.7	-30.6984
2032.5	-20.326
2033.31	-24.0233
2034.11	-22.7436
2034.92	-29.4577
2035.72	-24.1239
2036.53	-24.9929
2037.33	-19.6549
2038.14	-23.2867
2038.94	-30.1333
2039.74	-32.74
2040.55	-27.1076
2041.35	-24.5701
2042.15	-20.2378
2042.95	-22.7601
2043.76	-23.4125
2044.56	-28.5431
2045.36	-22.5506
2046.16	-29.1361
2046.96	-35.531
2047.76	-32.8774
2048.56	-31.9476
2049.37	-22.6309
2050.17	-19.9307
2050.97	-25.9313
2051.77	-22.9608
2052.57	-23.4608
2053.36	-22.5995
2054.16	-21.3754
2054.96	-18.5896
2055.76	-23.1021
2056.56	-27.8526
2057.36	-33.7089
2058.16	-20.2223
2058.96	-21.4086
2059.75	-21.3284
2060.55	-17.8971
2061.35	-25.8779
2062.14	-26.6936
2062.94	-19.8544
2063.74	-21.9329
2064.53	-19.9646
2065.33	-27.2677
2066.13	-32.4638
2066.92	-22.5741
2067.72	-14.5987
2068.51	-19.7144
2069.31	-16.3684
2070.1	-13.8851
2070.9	-22.0425
2071.69	-17.8539
2072.49	-14.9813
2073.28	-10.5473
2074.07	-16.3972
2074.87	-25.3233
2075.66	-16.2671
2076.45	-12.3424
2077.25	-24.3492
2078.04	-22.7713
2078.83	-28.8418
2079.62	-14.546
2080.41	-19.73
2081.21	-17.9273
2081.38	-17
2082.2	-17.5
2083.03	-19.5
2083.86	-17.5
2084.68	-12
2085.51	-8
2086.34	-9
2087.16	-5.5
2087.99	-15
2088.81	-12.5
2089.64	-20
2090.46	1
2091.29	-8.5
2092.11	-11.5
2092.94	-12.5
2093.76	-16
2094.58	-29.5
2095.41	-16.5
2096.23	-10.5
2097.06	-12
2097.88	-8
2098.7	-10
2099.53	-21
2100.35	-10.5
2101.17	-5.5
2101.99	-24
2102.81	-18
2103.64	-11.5
2104.46	-20
2105.28	-7.5
2106.1	-18
2106.92	-18.5
2107.74	-10
2108.56	-15
2109.38	-14
2110.2	-20.5
2111.03	-18.5
2111.84	-15
2112.66	-20.5
2113.48	-20.5
2114.3	-17
2115.12	-12.5
2115.94	-17.5
2116.76	-11
2117.58	-17.5
2118.4	-5
2119.22	-6.5
2120.03	-29
2120.85	-14
2121.67	-20
2122.49	-27
2123.3	-11
2124.12	-0.5
2124.94	-21.5
2125.76	-29
2126.57	-26
2127.39	8
2128.2	-20.5
2129.02	-17.5
2129.83	-6.5
2130.65	-21
2131.47	-20
2132.28	-8.5
2133.1	-23
2133.91	-21.5
2134.73	-17
2135.54	-12
2136.35	-16
2137.17	-23
2137.98	-26
2138.79	-12
2139.61	-9
2140.42	-17
2141.23	-21
2142.05	-17.5
2142.86	-43
2143.67	-20.5
2144.48	-19
2145.3	-3.5
2146.11	-17
2146.92	-22
2147.73	-6
2148.54	-11.5
2149.35	-27
2150.16	-15.5
2150.97	-15.5
2151.79	-24
2152.6	-21
2153.41	-11
2154.22	-9
2155.02	-30
2155.83	-24
2156.64	-21.5
2157.45	-25
2158.26	-36
2159.07	-20.5
2159.88	-20
2160.69	-20
2161.5	-22
2162.3	-8
2163.11	-10
2163.92	-26
2164.73	-23.5
2165.53	-19
2166.34	-11
2167.15	-21
2167.95	-23
2168.76	-11.5
2169.57	-38
2170.37	-16
2171.18	-11
2171.98	-11
2172.79	-31
2173.59	-35
2174.4	-42
2175.2	-22
2176.01	-43
2176.81	-17
2177.62	-18
2178.42	-41
2179.22	-22
2180.03	-20
2180.83	-20
2181.63	-19
2182.44	-23.5
2183.24	-18.5
2184.04	-24.5
2184.85	-25.5
2185.65	-29
2186.45	-25
2187.25	-26.5
2188.05	-20.5
2188.86	-36.5
2189.66	-49.5
2190.46	-24.5
2191.26	-18
2192.06	-17
2192.86	-38
2193.66	-33
2194.46	-19
2195.26	-23
2196.06	-47
2196.86	-32
2197.66	-24.5
2198.46	-32.5
2199.26	-36
2200.06	-35.5
2200.85	-32
2201.65	-32.5
2202.45	-32
2203.25	-23
2204.05	-25.5
2204.84	-56
2205.64	-46
2206.44	-22.5
2207.24	-16.5
2208.03	-34
2208.83	-26
2209.63	-22
2210.42	-20
2211.22	-32
2212.01	-33
2212.81	-16
2213.61	-35
2214.4	-34
2215.2	-26
2215.99	-25
2216.79	-33
2217.58	-31
2218.37	-22.5
2219.17	-23.5
2219.96	-36.5
2220.76	-35.5
2221.55	-31
2222.34	-29
2223.14	-24.5
2223.93	-10
2224.72	-19
2225.51	-33
2226.31	-34.5
2227.1	-25
2227.89	-34
2228.68	-37
2229.47	-21
2230.27	-27
2231.06	-44
2231.85	-25
2232.64	-13
2233.43	-22.5
2234.22	-35
2235.01	-36
2235.8	-36
2236.59	-57
2237.38	-46
2238.17	-21.5
2238.96	-30.5
2239.75	-55
2240.54	-25
2241.33	-33.5
2242.11	-34.5
2242.9	-27
2243.69	-29
2244.48	-21
2245.27	-34
2246.05	-26.5
2246.84	-20.5
2247.63	-30.5
2248.41	-48
2249.2	-38
2249.99	-25
2250.77	-31.5
2251.56	-47.5
2252.35	-27
2253.13	-28.5
2253.92	-30.5
2254.7	-38.5
2255.49	-31.5
2256.27	-25.5
2257.06	-52
2257.84	-24.5
2258.63	-31.5
2259.41	-35
2260.2	-33
2260.98	-36.5
2261.76	-29.5
2262.55	-36
2263.33	-33.5
2264.11	-22
2264.9	-30
2265.68	-56
2266.46	-37.5
2267.24	-50
2268.03	-27
2268.81	-36
2269.59	-36
2270.37	-31
2271.15	-28
2271.93	-45.5
2272.71	-31
2273.5	-37
2274.28	-46
2275.06	-33.5
2275.84	-37.5
2276.62	-42
2277.4	-26.5
2278.18	-43
2278.96	-33
2279.73	-48
2280.51	-34.5
2281.29	-38.5
2282.07	-56
2282.85	-37
2283.63	-18.5
2284.41	-26.5
2285.18	-30
2285.96	-33.5
2286.74	-40.5
2287.52	-20
2288.29	-39
2289.07	-37
2289.85	-16
2290.62	-46
2291.4	-49
2292.18	-28
2292.95	-34
2293.73	-33
2294.5	-12.5
2295.28	-34.5
2296.05	-34
2296.83	-46
2297.6	-26
2298.38	-27
2299.15	-37
2299.93	-51
2300.7	-20.5
2301.48	-27
2302.25	-50
2303.02	-26.5
2303.8	-31.5
2304.57	-32.5
2305.34	-31.5
2306.11	-29.5
2306.89	-43.5
2307.66	-35.5
2308.43	-47.5
2309.2	-29
2309.97	-23.5
2310.75	-33
2311.52	-21.5
2312.29	-42
2313.06	-29
2313.83	-31
2314.6	-28
2315.37	-29.5
2316.14	-41
2316.91	-35
2317.68	-32
2318.45	-32
2319.22	-32
2319.99	-26.5
2320.76	-42.5
2321.53	-30.5
2322.3	-38
2323.06	-22.5
2323.83	-27.5
2324.6	-39
2325.37	-47
2326.14	-30.5
2326.9	-48
2327.67	-43
2328.44	-33
2329.21	-26
2329.97	-28.5
2330.74	-35.5
2331.5	-25.5
2332.27	-40
2333.04	-35
2333.8	-31
2334.57	-26
2335.33	-36
2336.1	-50
2336.86	-31.5
2337.63	-40
2338.39	-32
2339.16	-43
2339.92	-42
2340.69	-37
2341.45	-34
2342.21	-58
2342.98	-35
2343.74	-29.5
2344.5	-38
2345.27	-33
2346.03	-33
2346.79	-39
2347.55	-29
2348.31	-33.5
2349.08	-25
2349.84	-29
2350.6	-39
2351.36	-34.5
2352.12	-35
2352.88	-48
2353.64	-32.5
2354.41	-40.5
2355.17	-43
2355.93	-34.5
2356.69	-40
2357.45	-33
2358.21	-35
2358.96	-37.5
2359.72	-20
2360.48	-31.5
2361.24	-54
2362	-31
2362.76	-43.5
2363.52	-39
2364.28	-33
2365.03	-30
2365.79	-28.5
2366.55	-38
2367.31	-48.5
2368.06	-21
2368.82	-37.5
2369.58	-39
2370.33	-36
2371.09	-37.5
2371.85	-42
2372.6	-30
2373.36	-32
2374.11	-28.5
2374.87	-48
2375.62	-47
2376.38	-30.5
2377.13	-34
2377.89	-31
2378.64	-36
2379.4	-41
2380.15	-40
2380.9	-38.5
2381.66	-31.5
2382.41	-35.5
2383.16	-51.5
2383.92	-44
2384.67	-29.5
2385.42	-40
2386.18	-41.5
2386.93	-38
2387.68	-45.5
2388.43	-38
2389.18	-35
2389.94	-26
2390.69	-33
2391.44	-37
2392.19	-35
2392.94	-21
2393.69	-34.5
2394.44	-35
2395.19	-23.5
2395.94	-35
2396.69	-42
2397.44	-40
2398.19	-26.5
2398.94	-47
2399.69	-45
2400.44	-34.5
2401.19	-35
2401.93	-39
2402.68	-32
2403.43	-28.5
2404.18	-36.5
2404.93	-28.5
2405.67	-34
2406.42	-18.5
2407.17	-29
2407.92	-35
2408.66	-35.5
2409.41	-20
2410.16	-38
2410.9	-28
2411.65	-23
2412.39	-41
2413.14	-34
2413.89	-33.5
2414.63	-37
2415.38	-42
2416.12	-41
2416.86	-29
2417.61	-38
2418.35	-37
2419.1	-33
2419.84	-23.5
2420.59	-39
2421.33	-39
2422.07	-40.5
2422.82	-30
2423.56	-29
2424.3	-38
2425.04	-43
2425.79	-36
2426.53	-37
2427.27	-31
2428.01	-32
2428.75	-42
2429.5	-29.5
2430.24	-40
2430.98	-40.5
2431.72	-30
2432.46	-30
2433.2	-26
2433.94	-38
2434.68	-49
2435.42	-37
2436.16	-44
2436.9	-34
2437.64	-35
2438.38	-31
2439.12	-36
2439.86	-26.5
2440.59	-35.5
2441.33	-36
2442.07	-29
2442.81	-36.5
2443.55	-31.5
2444.28	-48.5
2445.02	-30.5
2445.76	-29
2446.5	-30.5
2447.23	-32.5
2447.97	-25.5
2448.71	-25.5
2449.44	-35.5
2450.18	-29
2450.91	-33
2451.65	-34
2452.39	-34
2453.12	-36.5
2453.86	-28
2454.59	-31
2455.33	-27
2456.06	-33
2456.79	-34
2457.53	-27
2458.26	-34
2459	-40
2459.73	-28
2460.46	-21
2461.2	-50.5
2461.93	-28.5
2462.66	-38
2463.4	-34
2464.13	-26.5
2464.86	-28.5
2465.59	-45
2466.32	-31.5
2467.06	-40
2467.79	-29.5
2468.52	-33.5
2469.25	-53
2469.98	-46
2470.71	-27
2471.44	-27.5
2472.17	-26
2472.9	-28
2473.63	-32.5
2474.36	-36
2475.09	-49.5
2475.82	-26.5
2476.55	-33
2477.28	-45
2478.01	-38
2478.74	-38
2479.47	-26.5
2480.19	-39
2480.92	-42
2481.65	-38
2482.38	-33
2483.11	-45
2483.83	-22.5
2484.56	-32.5
2485.29	-40
2486.01	-31
2486.74	-36
2487.47	-39.5
2488.19	-33.5
2488.92	-39.5
2489.65	-24
2490.37	-48
2491.1	-32.5
2491.82	-33
2492.55	-40
2493.27	-33.5
2494	-28
2494.72	-28.5
2495.45	-41.5
2496.17	-37
2496.89	-25
2497.62	-36.5
2498.34	-31
2499.06	-34
2499.79	-37
2500.51	-31.5
2501.23	-49
2501.96	-33.5
2502.68	-25
2503.4	-41.5
2504.12	-36
2504.84	-27
2505.57	-27
2506.29	-42
2507.01	-31
2507.73	-24.5
2508.45	-38
2509.17	-47
2509.89	-35
2510.61	-30.5
2511.33	-34.5
2512.05	-23.5
2512.77	-39.5
2513.49	-56
2514.21	-52
2514.93	-33
2515.65	-20.5
2516.37	-43.5
2517.09	-44
2517.81	-24
2518.52	-31
2519.24	-59
2519.96	-43.5
2520.68	-27
2521.4	-40
2522.11	-46
2522.83	-42.5
2523.55	-22.5
2524.26	-38.5
2524.98	-25.5
2525.7	-35.5
2526.41	-26
2527.13	-35.5
2527.84	-41
2528.56	-23
2529.28	-54.5
2529.99	-35
2530.71	-30.5
2531.42	-17
2532.14	-35
2532.85	-42
2533.56	-22
2534.28	-27.5
2534.99	-37.5
2535.71	-22.5
2536.42	-26.5
2537.13	-30
2537.85	-31
2538.56	-27.5
2539.27	-19
2539.98	-36.5
2540.7	-57
2541.41	-25
2542.12	-37
2542.83	-35
2543.54	-20
2544.26	-32
2544.97	-50
2545.68	-32
2546.39	-32
2547.1	-29
2547.81	-33
2548.52	-38.5
2549.23	-26.5
2549.94	-30.5
2550.65	-39
2551.36	-30
2552.07	-31
2552.78	-34
2553.49	-31
2554.2	-26
2554.91	-23.5
2555.61	-48
2556.32	-42.5
2557.03	-23
2557.74	-31.5
2558.45	-21
2559.15	-27.5
2559.86	-40
2560.57	-35
2561.27	-45
2561.98	-31
2562.69	-23
2563.39	-42
2564.1	-39.5
2564.81	-27.5
2565.51	-34
2566.22	-43
2566.92	-36.5
2567.63	-29
2568.33	-45
2569.04	-44.5
2569.74	-31.5
2570.45	-32
2571.15	-34
2571.86	-36.5
2572.56	-20
2573.26	-34
2573.97	-64
2574.67	-18.5
2575.37	-23
2576.08	-42
2576.78	-47
2577.48	-32.5
2578.19	-25
2578.89	-41
2579.59	-41
2580.29	-19.5
2580.99	-39
2581.69	-46
2582.4	-28.5
2583.1	-32.5
2583.8	-43
2584.5	-35
2585.2	-20.5
2585.9	-17.5
2586.6	-46
2587.3	-29
2588	-16.5
2588.7	-37
2589.4	-34
2590.1	-32.5
2590.8	-22
2591.5	-39
2592.19	-35
2592.89	-36
2593.59	-24.5
2594.29	-39
2594.99	-34
2595.68	-38
2596.38	-39
2597.08	-35
2597.78	-22.5
2598.47	-28.5
2599.17	-51
2599.87	-61
2600.56	-24.5
2601.26	-28
2601.96	-24
2602.65	-36
2603.35	-30
2604.04	-36.5
2604.74	-37
2605.43	-27
2606.13	-36
2606.82	-56
2607.52	-41
2608.21	-27.5
2608.91	-40
2609.6	-37.5
2610.29	-37.5
2610.99	-24.5
2611.68	-37
2612.37	-32
2613.07	-26.5
2613.76	-31
2614.45	-35
2615.15	-35
2615.84	-31
2616.53	-30
2617.22	-44
2617.91	-36.5
2618.6	-16
2619.3	-36
2619.99	-39.5
2620.68	-24
2621.37	-42
2622.06	-38.5
2622.75	-33.5
2623.44	-31.5
2624.13	-27.5
2624.82	-33.5
2625.51	-30
2626.2	-23.5
2626.89	-27
2627.58	-36.5
2628.27	-20
2628.96	-28.5
2629.64	-40
2630.33	-46
2631.02	-30.5
2631.71	-44.5
2632.4	-35.5
2633.08	-24
2633.77	-29
2634.46	-24.5
2635.15	-44
2635.83	-21.5
2636.52	-35
2637.21	-47
2637.89	-31.5
2638.58	-34.5
2639.26	-24
2639.95	-24
2640.64	-38
2641.32	-31
2642.01	-43
2642.69	-38
2643.38	-29.5
2644.06	-30.5
2644.75	-36.5
2645.43	-30.5
2646.11	-25
2646.8	-55
2647.48	-43.5
2648.16	-34
2648.85	-23.5
2649.53	-34
2650.21	-33.5
2650.9	-21.5
2651.58	-39
2652.26	-37
2652.94	-27
2653.63	-16.5
2654.31	-34
2654.99	-36
2655.67	-33
2656.35	-20
2657.03	-35.5
2657.71	-31
2658.39	-36.5
2659.08	-33
2659.76	-43
2660.44	-29
2661.12	-40.5
2661.8	-27.5
2662.48	-31
2663.15	-36.5
2663.83	-30
2664.51	-25
2665.19	-35.5
2665.87	-20.5
2666.55	-30.5
2667.23	-46
2667.91	-23.5
2668.58	-19
2669.26	-38
2669.94	-34
2670.62	-30
2671.29	-28.5
2671.97	-25
2672.65	-32.5
2673.32	-19.5
2674	-38
2674.68	-43
2675.35	-21
2676.03	-32.5
2676.7	-38.5
2677.38	-33
2678.06	-28
2678.73	-19
2679.41	-25.5
2680.08	-13.5
2680.75	-18.5
2681.43	-38
2682.1	-26
2682.78	-28
2683.45	-32.5
2684.12	-25
2684.8	-28
2685.47	-32
2686.14	-25
2686.82	-38
2687.49	-31.5
2688.16	-14
2688.83	-38
2689.51	-51.5
2690.18	-28
2690.85	-27
2691.52	-30
2692.19	-26.5
2692.86	-28.5
2693.54	-30.4863
2694.21	-43.2525
2694.88	-38.2916
2695.55	-25.0014
2696.22	-36.5734
2696.89	-30.5029
2697.56	-29.7096
2698.23	-24.4545
2698.9	-29.3716
2699.57	-29.6395
2700.24	-30.8467
2700.91	-28.3652
2701.57	-31.3606
2702.24	-39.8439
2702.91	-30.502
2703.58	-48.2729
2704.25	-41.8079
2704.92	-25.379
2705.58	-29.1108
2706.25	-37.9221
2706.92	-27.0308
2707.58	-29.2892
2708.25	-35.4811
2708.92	-27.8434
2709.59	-27.3926
2710.25	-26.268
2710.92	-41.2204
2711.58	-25.1829
2712.25	-24.908
2712.92	-24.0134
2713.58	-27.5333
2714.25	-27.1977
2714.91	-33.4841
2715.58	-32.3939
2716.24	-27.032
2716.91	-24.8349
2717.57	-25.9427
2718.23	-35.5685
2718.9	-27.8118
2719.56	-24.0675
2720.23	-29.7193
2720.89	-21.6963
2721.55	-19.0886
2722.22	-29.3997
2722.88	-22.8388
2723.54	-31.133
2724.2	-27.7539
2724.87	-31.0024
2725.53	-22.4575
2726.19	-26.1981
2726.85	-20.8804
2727.51	-24.0277
2728.18	-36.4528
2728.84	-24.0102
2729.5	-28.956
2730.16	-28.4401
2730.82	-30.1028
2731.48	-27.2521
2732.14	-32.6221
2732.8	-28.8826
2733.46	-32.5175
2734.12	-28.6065
2734.78	-27.1713
2735.44	-33.9696
2736.1	-18.953
2736.76	-35.6193
2737.42	-32.1643
2738.07	-28.0972
2738.73	-21.4586
2739.39	-27.9526
2740.05	-33.8569
2740.71	-24.4566
2741.37	-25.9507
2742.02	-30.533
2742.68	-29.5739
2743.34	-22.9456
2743.99	-23.4035
2744.65	-24.1923
2745.31	-27.3167
2745.96	-25.5369
2746.62	-28.7261
2747.28	-30.2665
2747.93	-27.5986
2748.59	-21.2436
2749.24	-27.9915
2749.9	-22.7228
2750.55	-24.3938
2751.21	-28.9918
2751.86	-22.8458
2752.52	-23.1903
2753.17	-25.7479
2753.83	-21.8652
2754.48	-26.0843
2755.14	-27.5694
2755.79	-16.2618
2756.44	-22.7211
2757.1	-26.491
2757.75	-21.4123
2758.4	-19.927
2759.05	-14.166
2759.71	-18.9858
2760.36	-18.9382
2761.01	-19.2968
2761.66	-27.4239
2762.32	-21.9506
2762.97	-28.8885
2763.63	-11
2764.32	-20
2765.01	-17.5
2765.69	-10.5
2766.38	-27
2767.07	-30
2767.75	-19
2768.44	-18
2769.12	-24
2769.81	-21
2770.49	-11
2771.18	-23
2771.87	-25
2772.55	-38
2773.24	-14
2773.92	-29
2774.6	-10
2775.29	-23
2775.97	-11
2776.66	-23
2777.34	-24
2778.03	-19.5
2778.71	-6
2779.39	-20
2780.08	-19
2780.76	-21
2781.44	-30
2782.12	-29
2782.81	-16.5
2783.49	-8
2784.17	-27
2784.85	-19
2785.54	-23.5
2786.22	-2
2786.9	-32
2787.58	-8
2788.26	-16.5
2788.94	-10
2789.63	-15
2790.31	-20.5
2790.99	-7
2791.67	-17
2792.35	-19.5
2793.03	-13.5
2793.71	-32
2794.39	-25
2795.07	-19.5
2795.75	-22
2796.43	-11
2797.11	-17
2797.79	-30.5
2798.46	-17.5
2799.14	-12
2799.82	-19.5
2800.5	-16
2801.18	-20
2801.86	-29
2802.54	-25
2803.21	-35
2803.89	-24
2804.57	-16
2805.25	-20
2805.92	-10
2806.6	-16
2807.28	-25
2807.95	-28
2808.63	-31
2809.31	-16.5
2809.98	-36
2810.66	-31
2811.34	-22
2812.01	-18
2812.69	-25
2813.36	-18
2814.04	-20
2814.71	-22
2815.39	-19
2816.06	-18
2816.74	-21.5
2817.41	-18
2818.09	-14
2818.76	-19
2819.44	-18.5
2820.11	-23
2820.78	-10.5
2821.46	-27.5
2822.13	-17.5
2822.8	-21.5
2823.48	-10
2824.15	-17.5
2824.82	-25.5
2825.49	-17
2826.17	-29
2826.84	-15.5
2827.51	-14
2828.18	-9
2828.86	-23.5
2829.53	-13
2830.2	-25
2830.87	-6.5
2831.54	-16.5
2832.21	-37
2832.88	-10
2833.55	-39
2834.22	-38
2834.9	-16.5
2835.56	-16
2836.23	-21.5
2836.91	-13.5
2837.57	-20
2838.24	-26
2838.91	-30
2839.58	-28
2840.25	-34
2840.92	-13
2841.59	-12.5
2842.26	-15
2842.93	-21
2843.6	-13
2844.26	-19
2844.93	-25
2845.6	-19
2846.27	-2.5
2846.93	-26
2847.6	-7
2848.27	-13
2848.94	-6.5
2849.6	-12
2850.27	-14
2850.94	-24.5
2851.6	-12
2852.27	-16
2852.94	-11
2853.6	-10
2854.27	-20.5
2854.93	-21
2855.6	-5
2856.26	-9
2856.93	-8.5
2857.59	-13
2858.26	-20.5
2858.92	-17
2859.59	-41
2860.25	-19
2860.92	-19
2861.58	-29
2862.24	-21
2862.91	-19
2863.57	-15.5
2864.23	-20
2864.9	-18
2865.56	-20
2866.22	-9.5
2866.89	-15
2867.55	-13
2868.21	-21
2868.87	-29
2869.54	-20
2870.2	-24
2870.86	-44.5
2871.52	-22
2872.18	-10
2872.84	-35
2873.51	-19
2874.17	-21
2874.83	-31
2875.49	-12.5
2876.15	-10
2876.81	-23
2877.47	-24
2878.13	-24.5
2878.79	-16.5
2879.45	-20
2880.11	-25.5
2880.77	-29.5
2881.43	-32
2882.09	-25
2882.75	-22
2883.4	-21
2884.06	-28
2884.72	-30
2885.38	-47
2886.04	-35
2886.7	-27
2887.35	-18.5
2888.01	-30.5
2888.67	-38
2889.33	-20
2889.98	-41.5
2890.64	-21.5
2891.3	-29
2891.95	-12
2892.61	-22.5
2893.27	-20
2893.92	-32
2894.58	-28
2895.23	-29
2895.89	-41
2896.55	-22
2897.2	-26.5
2897.86	-30.5
2898.51	-40
2899.17	-17
2899.82	-14.5
2900.48	-22
2901.13	-32
2901.79	-24
2902.44	-32
2903.09	-32
2903.75	-15.5
2904.4	-26
2905.05	-31
2905.71	-32
2906.36	-28
2907.01	-5
2907.67	-28
2908.32	-22
2908.97	-27.5
2909.63	-30
2910.28	-52
2910.93	-19.5
2911.58	-32.5
2912.23	-16
2912.88	-31
2913.54	-27
2914.19	-24
2914.84	-27
2915.49	-21
2916.14	-30.5
2916.79	-24
2917.44	-45
2918.09	-13.5
2918.74	-23
2919.39	-28.5
2920.04	-21
2920.69	-25
2921.34	-28
2921.99	-17.5
2922.64	-25
2923.29	-36.5
2923.94	-19
2924.59	-19
2925.23	-19
2925.88	-29.5
2926.53	-29
2927.18	-38
2927.83	-37.5
2928.48	-24
2929.12	-21
2929.77	-13.5
2930.42	-33.5
2931.07	-18.5
2931.71	-48
2932.36	-28
2933.01	-21.5
2933.65	-21.5
2934.3	-33
2934.95	-17
2935.59	-32
2936.24	-26
2936.88	-19.5
2937.53	-32.5
2938.17	-27
2938.82	-31
2939.46	-19
2940.11	-36
2940.75	-19
2941.4	-30
2942.04	-26
2942.69	-29.5
2943.33	-18
2943.98	-26
2944.62	-46.5
2945.26	-30
2945.91	-36
2946.55	-31.5
2947.19	-24.5
2947.84	-28
2948.48	-49
2949.12	-34.5
2949.76	-27
2950.41	-26
2951.05	-18
2951.69	-48
2952.33	-31
2952.98	-49
2953.62	-24
2954.26	-31.5
2954.9	-41
2955.54	-22
2956.18	-31
2956.82	-29
2957.46	-45
2958.1	-36.5
2958.74	-42
2959.38	-37
2960.02	-37
2960.66	-38
2961.3	-39
2961.94	-53
2962.58	-33
2963.22	-36
2963.86	-28
2964.5	-38
2965.14	-34
2965.78	-44
2966.42	-52
2967.05	-62
2967.69	-36
2968.33	-33
2968.97	-29
2969.61	-41
2970.24	-33.5
2970.88	-41
2971.52	-42
2972.15	-34.5
2972.79	-38
2973.43	-41
2974.06	-49
2974.7	-35
2975.34	-40
2975.97	-29
2976.61	-35
2977.24	-29.5
2977.88	-40
2978.52	-30
2979.15	-27
2979.79	-50.5
2980.42	-35
2981.06	-34
2981.69	-43
2982.32	-33.5
2982.96	-38
2983.59	-35
2984.23	-48.5
2984.86	-23
2985.49	-57
2986.13	-33
2986.76	-42
2987.39	-38
2988.03	-33
2988.66	-40
2989.29	-31.5
2989.93	-57
2990.56	-31
2991.19	-37.5
2991.82	-40
2992.45	-56
2993.09	-27.5
2993.72	-39
2994.35	-36
2994.98	-40
2995.61	-38.5
2996.24	-39
2996.87	-33
2997.5	-31.5
2998.14	-41.5
2998.77	-22
2999.4	-34
3000.03	-41.5
3000.66	-32
3001.29	-26
3001.91	-37
3002.54	-41
3003.17	-28
3003.8	-41
3004.43	-35
3005.06	-34
3005.69	-36
3006.32	-27
3006.95	-31.5
3007.57	-36.5
3008.2	-33
3008.83	-28
3009.46	-27
3010.08	-29
3010.71	-44
3011.34	-31
3011.97	-33.5
3012.59	-30.5
3013.22	-27
3013.85	-38
3014.47	-21.5
3015.1	-49
3015.72	-29
3016.35	-40
3016.98	-43
3017.6	-30
3018.23	-53
3018.85	-35.5
3019.48	-36
3020.1	-25
3020.73	-46
3021.35	-38.5
3021.98	-28
3022.6	-36.5
3023.23	-35.5
3023.85	-22
3024.47	-39
3025.1	-29
3025.72	-25.5
3026.34	-43
3026.97	-35
3027.59	-50.5
3028.21	-35
3028.84	-45
3029.46	-44
3030.08	-36.5
3030.7	-35
3031.32	-40.5
3031.95	-32
3032.57	-23
3033.19	-36
3033.81	-33
3034.43	-43.5
3035.05	-43.5
3035.68	-30
3036.3	-30.5
3036.92	-35
3037.54	-28
3038.16	-36
3038.78	-59.5
3039.4	-37
3040.02	-29
3040.64	-38
3041.26	-38
3041.88	-40.5
3042.5	-31
3043.12	-33
3043.73	-36.5
3044.35	-27
3044.97	-38
3045.59	-44.5
3046.21	-34.5
3046.83	-50
3047.44	-40
3048.06	-33.5
3048.68	-37
3049.3	-36
3049.92	-32
3050.53	-39.5
3051.15	-26
3051.77	-47
3052.38	-36.5
3053	-36
3053.62	-44
3054.23	-31.5
3054.85	-32.5
3055.46	-27
3056.08	-46
3056.7	-35.5
3057.31	-27
3057.93	-37
3058.54	-44
3059.16	-38
3059.77	-23
3060.39	-37
3061	-26
3061.61	-31
3062.23	-46
3062.84	-37
3063.46	-34.5
3064.07	-35.5
3064.68	-33
3065.3	-37
3065.91	-27.5
3066.52	-47
3067.14	-50
3067.75	-40
3068.36	-38
3068.98	-34
3069.59	-48
3070.2	-36
3070.81	-56
3071.42	-50
3072.04	-37
3072.65	-38.5
3073.26	-42
3073.87	-28
3074.48	-30.5
3075.09	-48
3075.7	-36.5
3076.31	-33.5
3076.92	-36.5
3077.53	-32
3078.14	-43
3078.75	-32.5
3079.36	-36.5
3079.97	-41
3080.58	-30
3081.19	-33.5
3081.8	-25.5
3082.41	-41
3083.02	-61
3083.63	-33
3084.24	-27
3084.84	-23
3085.45	-36
3086.06	-34.5
3086.67	-41
3087.28	-40
3087.88	-38
3088.49	-26.5
3089.1	-34.5
3089.71	-27
3090.31	-42.5
3090.92	-31
3091.53	-37
3092.13	-35.5
3092.74	-34.5
3093.34	-39
3093.95	-32.5
3094.56	-34
3095.16	-45
3095.77	-31.5
3096.37	-35.5
3096.98	-37.5
3097.58	-35
3098.19	-39
3098.79	-44
3099.4	-40.5
3100	-51
3100.61	-38
3101.21	-38.5
3101.81	-25.5
3102.42	-35.5
3103.02	-31
3103.63	-35
3104.23	-30
3104.83	-43
3105.43	-32
3106.04	-27.5
3106.64	-55
3107.24	-40
3107.85	-36
3108.45	-38.5
3109.05	-29
3109.65	-46
3110.25	-40
3110.86	-24
3111.46	-41.5
3112.06	-34.5
3112.66	-32.5
3113.26	-41
3113.86	-36
3114.46	-34
3115.06	-32
3115.66	-27.5
3116.26	-37.5
3116.86	-36.5
3117.46	-27
3118.06	-36
3118.66	-40
3119.26	-26
3119.86	-33
3120.46	-41
3121.06	-33
3121.66	-25
3122.26	-33
3122.85	-31.5
3123.45	-35.5
3124.05	-26
3124.65	-27
3125.25	-34
3125.84	-28
3126.44	-52
3127.04	-38
3127.64	-34
3128.23	-28
3128.83	-32
3129.43	-38.5
3130.02	-43
3130.62	-45
3131.22	-39
3131.81	-35.5
3132.41	-38
3133	-36
3133.6	-42
3134.19	-34.5
3134.79	-25.5
3135.39	-45
3135.98	-22
3136.58	-39.5
3137.17	-30.5
3137.76	-45
3138.36	-42
3138.95	-29
3139.55	-66
3140.14	-35.5
3140.73	-39.5
3141.33	-45
3141.92	-45.5
3142.51	-29
3143.11	-28
3143.7	-36
3144.29	-36.5
3144.89	-33.5
3145.48	-38
3146.07	-47
3146.66	-44.5
3147.26	-32.5
3147.85	-28
3148.44	-37
3149.03	-45.5
3149.62	-32
3150.21	-36
3150.8	-38
3151.39	-43.5
3151.99	-20
3152.58	-34
3153.17	-44
3153.76	-24
3154.35	-35
3154.94	-43.5
3155.53	-40.5
3156.12	-34
3156.71	-30
3157.29	-36
3157.88	-41.5
3158.47	-39
3159.06	-45
3159.65	-35.5
3160.24	-35
3160.83	-34
3161.42	-27.5
3162	-31
3162.59	-34
3163.18	-36
3163.77	-27
3164.35	-37
3164.94	-35
3165.53	-45
3166.12	-39
3166.7	-26
3167.29	-29
3167.88	-36
3168.46	-33.5
3169.05	-41
3169.64	-49
3170.22	-35
3170.81	-40.5
3171.39	-28
3171.98	-41
3172.56	-48.5
3173.15	-37.5
3173.73	-30
3174.32	-30.5
3174.9	-43
3175.49	-57
3176.07	-31
3176.65	-37
3177.24	-32.5
3177.82	-32
3178.41	-23
3178.99	-30
3179.57	-23
3180.16	-21
3180.74	-38
3181.32	-26.5
3181.91	-33
3182.49	-31.5
3183.07	-35.5
3183.65	-34.5
3184.23	-48
3184.82	-29
3185.4	-34
3185.98	-28
3186.56	-50
3187.14	-45
3187.72	-37.5
3188.3	-38
3188.89	-42
3189.47	-27.5
3190.05	-40
3190.63	-34
3191.21	-30
3191.79	-41.5
3192.37	-33.5
3192.95	-47
3193.53	-37
3194.11	-25
3194.69	-41
3195.26	-58
3195.84	-30
3196.42	-35
3197	-42
3197.58	-43
3198.16	-32.5
3198.74	-25
3199.31	-22
3199.89	-40
